0,-0.345,-0.160
1,-0.345,-0.160
2,-0.345,-0.160
3,-0.345,-0.160
4,-0.345,-0.160
5,-0.345,-0.160
6,-0.345,-0.160
7,-0.345,-0.160
8,-0.330,-0.150
9,-0.320,-0.145
10,-0.320,-0.170
11,-0.325,-0.180
12,-0.330,-0.170
13,-0.325,-0.150
14,-0.315,-0.160
15,-0.305,-0.170
16,-0.300,-0.185
17,-0.315,-0.195
18,-0.320,-0.185
19,-0.315,-0.185
20,-0.300,-0.175
21,-0.290,-0.200
22,-0.290,-0.190
23,-0.295,-0.205
24,-0.290,-0.195
25,-0.295,-0.175
26,-0.285,-0.175
27,-0.255,-0.190
28,-0.230,-0.200
29,-0.200,-0.215
30,-0.195,-0.210
31,-0.160,-0.210
32,-0.160,-0.190
33,-0.165,-0.220
34,-0.200,-0.225
35,-0.200,-0.245
36,-0.210,-0.235
37,-0.210,-0.215
38,-0.205,-0.225
39,-0.210,-0.235
40,-0.210,-0.240
41,-0.220,-0.245
42,-0.250,-0.225
43,-0.250,-0.215
44,-0.250,-0.205
45,-0.260,-0.205
46,-0.265,-0.205
47,-0.275,-0.195
48,-0.305,-0.190
49,-0.320,-0.175
50,-0.330,-0.180
51,-0.320,-0.180
52,-0.320,-0.200
53,-0.315,-0.200
54,-0.340,-0.185
55,-0.350,-0.180
56,-0.335,-0.175
57,-0.320,-0.200
58,-0.310,-0.200
59,-0.335,-0.205
60,-0.345,-0.205
61,-0.350,-0.200
62,-0.350,-0.195
63,-0.355,-0.215
64,-0.350,-0.215
65,-0.350,-0.220
66,-0.370,-0.215
67,-0.360,-0.220
68,-0.345,-0.220
69,-0.325,-0.220
70,-0.325,-0.220
71,-0.335,-0.230
72,-0.370,-0.245
73,-0.400,-0.235
74,-0.400,-0.230
75,-0.395,-0.230
76,-0.350,-0.240
77,-0.210,-0.240
78,-0.010,-0.240
79,0.245,-0.245
80,0.530,-0.250
81,0.850,-0.285
82,1.085,-0.315
83,1.065,-0.375
84,0.815,-0.400
85,0.480,-0.410
86,0.210,-0.365
87,-0.010,-0.295
88,-0.145,-0.230
89,-0.185,-0.200
90,-0.240,-0.200
91,-0.285,-0.215
92,-0.285,-0.205
93,-0.285,-0.195
94,-0.290,-0.180
95,-0.300,-0.190
96,-0.335,-0.200
97,-0.360,-0.200
98,-0.360,-0.185
99,-0.385,-0.180
100,-0.395,-0.195
101,-0.415,-0.210
102,-0.430,-0.230
103,-0.435,-0.225
104,-0.405,-0.200
105,-0.410,-0.205
106,-0.405,-0.210
107,-0.415,-0.225
108,-0.440,-0.225
109,-0.430,-0.210
110,-0.415,-0.190
111,-0.420,-0.190
112,-0.415,-0.225
113,-0.420,-0.230
114,-0.430,-0.245
115,-0.440,-0.235
116,-0.425,-0.225
117,-0.415,-0.225
118,-0.425,-0.240
119,-0.430,-0.250
120,-0.425,-0.250
121,-0.415,-0.230
122,-0.420,-0.220
123,-0.415,-0.230
124,-0.420,-0.235
125,-0.420,-0.240
126,-0.435,-0.225
127,-0.415,-0.210
128,-0.415,-0.200
129,-0.400,-0.185
130,-0.395,-0.190
131,-0.410,-0.210
132,-0.425,-0.195
133,-0.415,-0.180
134,-0.405,-0.175
135,-0.395,-0.180
136,-0.400,-0.195
137,-0.410,-0.200
138,-0.420,-0.185
139,-0.410,-0.195
140,-0.395,-0.195
141,-0.380,-0.210
142,-0.390,-0.215
143,-0.400,-0.220
144,-0.415,-0.210
145,-0.420,-0.205
146,-0.385,-0.210
147,-0.375,-0.220
148,-0.380,-0.205
149,-0.375,-0.215
150,-0.365,-0.210
151,-0.350,-0.210
152,-0.350,-0.215
153,-0.350,-0.220
154,-0.340,-0.235
155,-0.350,-0.245
156,-0.350,-0.250
157,-0.325,-0.255
158,-0.320,-0.240
159,-0.310,-0.250
160,-0.310,-0.245
161,-0.310,-0.240
162,-0.305,-0.240
163,-0.285,-0.250
164,-0.270,-0.240
165,-0.265,-0.245
166,-0.265,-0.230
167,-0.255,-0.235
168,-0.240,-0.230
169,-0.220,-0.225
170,-0.210,-0.210
171,-0.205,-0.205
172,-0.190,-0.205
173,-0.175,-0.200
174,-0.175,-0.205
175,-0.165,-0.210
176,-0.155,-0.200
177,-0.145,-0.200
178,-0.130,-0.200
179,-0.125,-0.215
180,-0.135,-0.225
181,-0.125,-0.225
182,-0.110,-0.215
183,-0.090,-0.215
184,-0.105,-0.225
185,-0.120,-0.240
186,-0.120,-0.260
187,-0.120,-0.255
188,-0.110,-0.235
189,-0.110,-0.230
190,-0.130,-0.230
191,-0.160,-0.245
192,-0.165,-0.255
193,-0.170,-0.240
194,-0.170,-0.225
195,-0.180,-0.215
196,-0.205,-0.235
197,-0.225,-0.260
198,-0.235,-0.265
199,-0.245,-0.250
200,-0.250,-0.240
201,-0.255,-0.235
202,-0.265,-0.235
203,-0.275,-0.250
204,-0.285,-0.260
205,-0.295,-0.245
206,-0.290,-0.215
207,-0.305,-0.215
208,-0.315,-0.225
209,-0.330,-0.250
210,-0.340,-0.225
211,-0.325,-0.220
212,-0.325,-0.190
213,-0.315,-0.185
214,-0.310,-0.185
215,-0.335,-0.200
216,-0.355,-0.205
217,-0.355,-0.190
218,-0.365,-0.175
219,-0.345,-0.175
220,-0.345,-0.190
221,-0.330,-0.205
222,-0.350,-0.205
223,-0.355,-0.185
224,-0.340,-0.180
225,-0.345,-0.195
226,-0.345,-0.210
227,-0.350,-0.225
228,-0.350,-0.225
229,-0.350,-0.200
230,-0.345,-0.190
231,-0.330,-0.205
232,-0.340,-0.215
233,-0.350,-0.220
234,-0.360,-0.210
235,-0.350,-0.190
236,-0.340,-0.190
237,-0.330,-0.215
238,-0.320,-0.235
239,-0.325,-0.235
240,-0.320,-0.235
241,-0.325,-0.205
242,-0.320,-0.205
243,-0.315,-0.225
244,-0.325,-0.230
245,-0.345,-0.240
246,-0.350,-0.235
247,-0.330,-0.215
248,-0.320,-0.200
249,-0.305,-0.220
250,-0.305,-0.210
251,-0.300,-0.220
252,-0.320,-0.210
253,-0.325,-0.195
254,-0.325,-0.185
255,-0.305,-0.185
256,-0.290,-0.185
257,-0.305,-0.200
258,-0.320,-0.190
259,-0.325,-0.175
260,-0.325,-0.170
261,-0.310,-0.185
262,-0.310,-0.180
263,-0.310,-0.185
264,-0.325,-0.190
265,-0.310,-0.175
266,-0.310,-0.175
267,-0.315,-0.185
268,-0.310,-0.195
269,-0.320,-0.210
270,-0.330,-0.200
271,-0.320,-0.200
272,-0.315,-0.195
273,-0.315,-0.215
274,-0.315,-0.215
275,-0.340,-0.210
276,-0.340,-0.210
277,-0.325,-0.200
278,-0.310,-0.200
279,-0.305,-0.200
280,-0.320,-0.205
281,-0.320,-0.220
282,-0.330,-0.225
283,-0.330,-0.240
284,-0.335,-0.240
285,-0.320,-0.235
286,-0.320,-0.240
287,-0.330,-0.245
288,-0.340,-0.245
289,-0.345,-0.235
290,-0.335,-0.225
291,-0.320,-0.235
292,-0.330,-0.235
293,-0.325,-0.225
294,-0.320,-0.220
295,-0.325,-0.210
296,-0.325,-0.205
297,-0.315,-0.210
298,-0.315,-0.185
299,-0.320,-0.195
300,-0.335,-0.195
301,-0.335,-0.190
302,-0.325,-0.180
303,-0.320,-0.180
304,-0.330,-0.165
305,-0.340,-0.180
306,-0.350,-0.190
307,-0.330,-0.190
308,-0.335,-0.185
309,-0.325,-0.200
310,-0.310,-0.205
311,-0.340,-0.205
312,-0.355,-0.220
313,-0.335,-0.210
314,-0.320,-0.215
315,-0.305,-0.205
316,-0.310,-0.210
317,-0.315,-0.200
318,-0.320,-0.210
319,-0.350,-0.225
320,-0.315,-0.200
321,-0.320,-0.195
322,-0.320,-0.205
323,-0.320,-0.215
324,-0.320,-0.220
325,-0.320,-0.250
326,-0.310,-0.220
327,-0.310,-0.225
328,-0.315,-0.235
329,-0.315,-0.225
330,-0.310,-0.230
331,-0.295,-0.225
332,-0.280,-0.225
333,-0.280,-0.235
334,-0.290,-0.230
335,-0.295,-0.225
336,-0.295,-0.235
337,-0.285,-0.220
338,-0.275,-0.215
339,-0.240,-0.210
340,-0.220,-0.205
341,-0.215,-0.205
342,-0.215,-0.185
343,-0.175,-0.180
344,-0.145,-0.180
345,-0.140,-0.185
346,-0.150,-0.175
347,-0.185,-0.185
348,-0.210,-0.190
349,-0.215,-0.185
350,-0.215,-0.190
351,-0.205,-0.190
352,-0.210,-0.200
353,-0.215,-0.200
354,-0.235,-0.215
355,-0.255,-0.210
356,-0.250,-0.205
357,-0.250,-0.215
358,-0.240,-0.210
359,-0.255,-0.225
360,-0.270,-0.215
361,-0.275,-0.220
362,-0.300,-0.220
363,-0.300,-0.220
364,-0.325,-0.220
365,-0.320,-0.225
366,-0.325,-0.225
367,-0.315,-0.230
368,-0.305,-0.240
369,-0.305,-0.245
370,-0.315,-0.230
371,-0.320,-0.240
372,-0.355,-0.260
373,-0.350,-0.250
374,-0.350,-0.250
375,-0.335,-0.255
376,-0.320,-0.240
377,-0.325,-0.255
378,-0.340,-0.245
379,-0.350,-0.245
380,-0.325,-0.225
381,-0.305,-0.220
382,-0.310,-0.195
383,-0.325,-0.220
384,-0.360,-0.215
385,-0.355,-0.220
386,-0.360,-0.190
387,-0.355,-0.175
388,-0.360,-0.165
389,-0.370,-0.190
390,-0.270,-0.185
391,-0.085,-0.185
392,0.135,-0.185
393,0.385,-0.185
394,0.690,-0.215
395,0.945,-0.265
396,1.020,-0.320
397,0.890,-0.370
398,0.605,-0.390
399,0.345,-0.355
400,0.115,-0.310
401,-0.055,-0.265
402,-0.140,-0.230
403,-0.185,-0.210
404,-0.235,-0.195
405,-0.240,-0.195
406,-0.250,-0.200
407,-0.270,-0.215
408,-0.300,-0.225
409,-0.315,-0.225
410,-0.340,-0.210
411,-0.370,-0.215
412,-0.380,-0.225
413,-0.405,-0.250
414,-0.395,-0.250
415,-0.385,-0.235
416,-0.375,-0.205
417,-0.365,-0.215
418,-0.375,-0.230
419,-0.395,-0.245
420,-0.415,-0.245
421,-0.420,-0.230
422,-0.405,-0.200
423,-0.390,-0.205
424,-0.410,-0.205
425,-0.400,-0.215
426,-0.410,-0.195
427,-0.390,-0.170
428,-0.395,-0.175
429,-0.390,-0.175
430,-0.395,-0.185
431,-0.415,-0.190
432,-0.425,-0.180
433,-0.420,-0.175
434,-0.395,-0.160
435,-0.390,-0.180
436,-0.400,-0.190
437,-0.405,-0.200
438,-0.405,-0.195
439,-0.395,-0.200
440,-0.385,-0.200
441,-0.385,-0.190
442,-0.385,-0.205
443,-0.400,-0.205
444,-0.405,-0.200
445,-0.405,-0.200
446,-0.400,-0.190
447,-0.390,-0.205
448,-0.385,-0.205
449,-0.400,-0.220
450,-0.415,-0.220
451,-0.405,-0.215
452,-0.390,-0.220
453,-0.375,-0.230
454,-0.370,-0.235
455,-0.385,-0.230
456,-0.400,-0.230
457,-0.385,-0.230
458,-0.370,-0.225
459,-0.360,-0.225
460,-0.365,-0.235
461,-0.365,-0.225
462,-0.375,-0.225
463,-0.380,-0.230
464,-0.355,-0.225
465,-0.340,-0.215
466,-0.340,-0.215
467,-0.335,-0.205
468,-0.345,-0.195
469,-0.335,-0.195
470,-0.320,-0.185
471,-0.315,-0.185
472,-0.330,-0.180
473,-0.315,-0.200
474,-0.330,-0.190
475,-0.315,-0.180
476,-0.300,-0.170
477,-0.275,-0.175
478,-0.255,-0.170
479,-0.240,-0.185
480,-0.255,-0.195
481,-0.245,-0.205
482,-0.235,-0.185
483,-0.220,-0.205
484,-0.210,-0.195
485,-0.210,-0.220
486,-0.215,-0.215
487,-0.205,-0.215
488,-0.185,-0.210
489,-0.170,-0.215
490,-0.150,-0.210
491,-0.140,-0.215
492,-0.145,-0.230
493,-0.140,-0.230
494,-0.115,-0.225
495,-0.120,-0.230
496,-0.125,-0.245
497,-0.115,-0.255
498,-0.130,-0.270
499,-0.120,-0.255
500,-0.120,-0.250
501,-0.125,-0.250
502,-0.115,-0.240
503,-0.130,-0.250
504,-0.125,-0.260
505,-0.125,-0.255
506,-0.130,-0.240
507,-0.140,-0.225
508,-0.160,-0.215
509,-0.170,-0.225
510,-0.190,-0.220
511,-0.195,-0.205
512,-0.190,-0.195
513,-0.180,-0.185
514,-0.195,-0.185
515,-0.225,-0.185
516,-0.235,-0.190
517,-0.240,-0.180
518,-0.235,-0.165
519,-0.235,-0.165
520,-0.240,-0.160
521,-0.270,-0.180
522,-0.275,-0.185
523,-0.280,-0.195
524,-0.275,-0.180
525,-0.275,-0.175
526,-0.280,-0.190
527,-0.300,-0.195
528,-0.310,-0.195
529,-0.310,-0.195
530,-0.305,-0.185
531,-0.295,-0.165
532,-0.295,-0.180
533,-0.310,-0.200
534,-0.320,-0.200
535,-0.305,-0.200
536,-0.300,-0.190
537,-0.295,-0.185
538,-0.315,-0.190
539,-0.315,-0.220
540,-0.320,-0.230
541,-0.305,-0.210
542,-0.305,-0.210
543,-0.295,-0.200
544,-0.310,-0.205
545,-0.305,-0.225
546,-0.300,-0.230
547,-0.305,-0.220
548,-0.300,-0.200
549,-0.310,-0.180
550,-0.295,-0.185
551,-0.295,-0.205
552,-0.295,-0.205
553,-0.290,-0.185
554,-0.285,-0.160
555,-0.280,-0.160
556,-0.275,-0.170
557,-0.275,-0.170
558,-0.285,-0.170
559,-0.290,-0.150
560,-0.275,-0.145
561,-0.280,-0.150
562,-0.270,-0.170
563,-0.285,-0.175
564,-0.295,-0.175
565,-0.295,-0.160
566,-0.275,-0.150
567,-0.270,-0.165
568,-0.265,-0.170
569,-0.265,-0.195
570,-0.270,-0.190
571,-0.265,-0.185
572,-0.270,-0.165
573,-0.260,-0.160
574,-0.260,-0.175
575,-0.265,-0.185
576,-0.285,-0.185
577,-0.285,-0.175
578,-0.275,-0.175
579,-0.260,-0.185
580,-0.265,-0.205
581,-0.280,-0.220
582,-0.285,-0.215
583,-0.280,-0.200
584,-0.265,-0.195
585,-0.265,-0.205
586,-0.265,-0.210
587,-0.265,-0.215
588,-0.265,-0.210
589,-0.270,-0.195
590,-0.270,-0.190
591,-0.255,-0.195
592,-0.265,-0.200
593,-0.280,-0.200
594,-0.290,-0.185
595,-0.280,-0.165
596,-0.270,-0.150
597,-0.270,-0.155
598,-0.265,-0.160
599,-0.265,-0.175
600,-0.295,-0.165
601,-0.280,-0.155
602,-0.285,-0.140
603,-0.265,-0.155
604,-0.265,-0.155
605,-0.280,-0.165
606,-0.285,-0.160
607,-0.285,-0.150
608,-0.275,-0.150
609,-0.275,-0.170
610,-0.275,-0.180
611,-0.275,-0.200
612,-0.285,-0.180
613,-0.285,-0.170
614,-0.270,-0.160
615,-0.265,-0.180
616,-0.270,-0.190
617,-0.275,-0.185
618,-0.285,-0.190
619,-0.280,-0.175
620,-0.265,-0.160
621,-0.265,-0.180
622,-0.275,-0.185
623,-0.270,-0.190
624,-0.275,-0.200
625,-0.275,-0.205
626,-0.275,-0.190
627,-0.260,-0.190
628,-0.265,-0.210
629,-0.275,-0.225
630,-0.285,-0.225
631,-0.280,-0.210
632,-0.280,-0.190
633,-0.260,-0.200
634,-0.270,-0.205
635,-0.275,-0.215
636,-0.280,-0.220
637,-0.280,-0.200
638,-0.270,-0.175
639,-0.255,-0.165
640,-0.225,-0.165
641,-0.235,-0.175
642,-0.245,-0.175
643,-0.240,-0.150
644,-0.220,-0.140
645,-0.210,-0.145
646,-0.215,-0.150
647,-0.220,-0.150
648,-0.225,-0.160
649,-0.235,-0.140
650,-0.230,-0.120
651,-0.220,-0.140
652,-0.190,-0.155
653,-0.180,-0.175
654,-0.185,-0.185
655,-0.150,-0.155
656,-0.115,-0.145
657,-0.105,-0.155
658,-0.100,-0.175
659,-0.125,-0.195
660,-0.150,-0.190
661,-0.155,-0.180
662,-0.150,-0.165
663,-0.160,-0.175
664,-0.175,-0.180
665,-0.185,-0.205
666,-0.200,-0.200
667,-0.190,-0.175
668,-0.190,-0.185
669,-0.180,-0.200
670,-0.195,-0.215
671,-0.210,-0.235
672,-0.225,-0.230
673,-0.220,-0.210
674,-0.225,-0.205
675,-0.240,-0.205
676,-0.240,-0.220
677,-0.260,-0.220
678,-0.290,-0.230
679,-0.285,-0.205
680,-0.280,-0.210
681,-0.265,-0.210
682,-0.275,-0.200
683,-0.295,-0.210
684,-0.305,-0.200
685,-0.295,-0.170
686,-0.290,-0.160
687,-0.275,-0.160
688,-0.285,-0.170
689,-0.295,-0.175
690,-0.305,-0.190
691,-0.320,-0.155
692,-0.305,-0.150
693,-0.295,-0.155
694,-0.300,-0.160
695,-0.305,-0.185
696,-0.305,-0.180
697,-0.295,-0.170
698,-0.285,-0.150
699,-0.290,-0.155
700,-0.310,-0.180
701,-0.340,-0.180
702,-0.370,-0.185
703,-0.365,-0.160
704,-0.290,-0.160
705,-0.150,-0.160
706,0.065,-0.165
707,0.295,-0.180
708,0.540,-0.190
709,0.840,-0.200
710,1.085,-0.215
711,1.165,-0.265
712,1.040,-0.335
713,0.765,-0.365
714,0.480,-0.350
715,0.220,-0.310
716,0.015,-0.240
717,-0.080,-0.200
718,-0.115,-0.190
719,-0.185,-0.210
720,-0.235,-0.220
721,-0.245,-0.200
722,-0.235,-0.190
723,-0.240,-0.180
724,-0.260,-0.180
725,-0.300,-0.190
726,-0.345,-0.185
727,-0.350,-0.160
728,-0.365,-0.150
729,-0.350,-0.155
730,-0.365,-0.150
731,-0.375,-0.155
732,-0.390,-0.145
733,-0.375,-0.130
734,-0.370,-0.130
735,-0.370,-0.135
736,-0.375,-0.140
737,-0.385,-0.150
738,-0.390,-0.150
739,-0.395,-0.135
740,-0.400,-0.130
741,-0.390,-0.145
742,-0.390,-0.160
743,-0.400,-0.155
744,-0.400,-0.155
745,-0.390,-0.165
746,-0.385,-0.150
747,-0.385,-0.160
748,-0.385,-0.155
749,-0.395,-0.160
750,-0.410,-0.155
751,-0.400,-0.160
752,-0.390,-0.150
753,-0.385,-0.160
754,-0.395,-0.160
755,-0.395,-0.170
756,-0.405,-0.185
757,-0.405,-0.180
758,-0.390,-0.180
759,-0.380,-0.180
760,-0.380,-0.190
761,-0.395,-0.190
762,-0.400,-0.185
763,-0.410,-0.185
764,-0.390,-0.175
765,-0.385,-0.170
766,-0.375,-0.170
767,-0.385,-0.180
768,-0.395,-0.165
769,-0.395,-0.155
770,-0.390,-0.155
771,-0.380,-0.150
772,-0.385,-0.135
773,-0.390,-0.130
774,-0.395,-0.135
775,-0.385,-0.125
776,-0.375,-0.125
777,-0.365,-0.115
778,-0.365,-0.120
779,-0.370,-0.130
780,-0.370,-0.130
781,-0.365,-0.130
782,-0.350,-0.120
783,-0.340,-0.130
784,-0.345,-0.125
785,-0.345,-0.145
786,-0.360,-0.155
787,-0.350,-0.155
788,-0.320,-0.145
789,-0.305,-0.130
790,-0.290,-0.140
791,-0.300,-0.150
792,-0.290,-0.160
793,-0.295,-0.155
794,-0.280,-0.145
795,-0.255,-0.130
796,-0.235,-0.150
797,-0.245,-0.175
798,-0.245,-0.185
799,-0.235,-0.185
800,-0.225,-0.170
801,-0.205,-0.160
802,-0.180,-0.165
803,-0.180,-0.180
804,-0.190,-0.185
805,-0.170,-0.185
806,-0.155,-0.155
807,-0.145,-0.160
808,-0.140,-0.170
809,-0.150,-0.180
810,-0.140,-0.190
811,-0.145,-0.165
812,-0.135,-0.155
813,-0.110,-0.140
814,-0.130,-0.130
815,-0.125,-0.150
816,-0.130,-0.150
817,-0.135,-0.145
818,-0.120,-0.140
819,-0.120,-0.140
820,-0.120,-0.125
821,-0.145,-0.145
822,-0.165,-0.150
823,-0.170,-0.140
824,-0.175,-0.120
825,-0.175,-0.120
826,-0.190,-0.130
827,-0.215,-0.150
828,-0.225,-0.155
829,-0.235,-0.150
830,-0.250,-0.135
831,-0.245,-0.135
832,-0.265,-0.150
833,-0.270,-0.155
834,-0.295,-0.150
835,-0.315,-0.130
836,-0.305,-0.120
837,-0.295,-0.120
838,-0.300,-0.125
839,-0.315,-0.145
840,-0.325,-0.155
841,-0.325,-0.150
842,-0.325,-0.135
843,-0.325,-0.145
844,-0.330,-0.160
845,-0.340,-0.165
846,-0.355,-0.170
847,-0.360,-0.160
848,-0.350,-0.145
849,-0.335,-0.135
850,-0.355,-0.155
851,-0.360,-0.165
852,-0.365,-0.160
853,-0.365,-0.145
854,-0.345,-0.125
855,-0.350,-0.120
856,-0.360,-0.110
857,-0.360,-0.125
858,-0.355,-0.115
859,-0.350,-0.115
860,-0.345,-0.095
861,-0.335,-0.095
862,-0.345,-0.100
863,-0.365,-0.115
864,-0.375,-0.115
865,-0.365,-0.090
866,-0.350,-0.085
867,-0.355,-0.090
868,-0.345,-0.105
869,-0.350,-0.125
870,-0.350,-0.125
871,-0.355,-0.105
872,-0.345,-0.110
873,-0.330,-0.120
874,-0.325,-0.125
875,-0.330,-0.140
876,-0.350,-0.145
877,-0.350,-0.125
878,-0.350,-0.110
879,-0.340,-0.120
880,-0.340,-0.120
881,-0.350,-0.125
882,-0.355,-0.145
883,-0.345,-0.135
884,-0.335,-0.130
885,-0.330,-0.145
886,-0.340,-0.140
887,-0.340,-0.175
888,-0.350,-0.180
889,-0.340,-0.150
890,-0.325,-0.135
891,-0.325,-0.135
892,-0.320,-0.145
893,-0.340,-0.165
894,-0.355,-0.165
895,-0.360,-0.160
896,-0.355,-0.135
897,-0.345,-0.120
898,-0.330,-0.135
899,-0.335,-0.140
900,-0.345,-0.140
901,-0.345,-0.125
902,-0.350,-0.120
903,-0.330,-0.100
904,-0.330,-0.095
905,-0.345,-0.100
906,-0.345,-0.115
907,-0.350,-0.105
908,-0.340,-0.085
909,-0.345,-0.070
910,-0.345,-0.080
911,-0.345,-0.115
912,-0.350,-0.125
913,-0.345,-0.115
914,-0.345,-0.095
915,-0.335,-0.105
916,-0.355,-0.110
917,-0.360,-0.110
918,-0.365,-0.140
919,-0.365,-0.140
920,-0.360,-0.120
921,-0.350,-0.105
922,-0.355,-0.110
923,-0.355,-0.115
924,-0.355,-0.125
925,-0.350,-0.130
926,-0.345,-0.105
927,-0.340,-0.115
928,-0.355,-0.115
929,-0.370,-0.135
930,-0.380,-0.145
931,-0.380,-0.140
932,-0.375,-0.130
933,-0.365,-0.130
934,-0.360,-0.140
935,-0.355,-0.155
936,-0.355,-0.165
937,-0.365,-0.160
938,-0.365,-0.135
939,-0.345,-0.115
940,-0.340,-0.120
941,-0.360,-0.145
942,-0.385,-0.150
943,-0.380,-0.150
944,-0.360,-0.110
945,-0.345,-0.105
946,-0.345,-0.105
947,-0.365,-0.105
948,-0.375,-0.110
949,-0.385,-0.110
950,-0.355,-0.090
951,-0.350,-0.070
952,-0.350,-0.080
953,-0.360,-0.100
954,-0.370,-0.105
955,-0.370,-0.100
956,-0.355,-0.075
957,-0.350,-0.075
958,-0.350,-0.095
959,-0.365,-0.105
960,-0.365,-0.115
961,-0.360,-0.110
962,-0.335,-0.105
963,-0.325,-0.090
964,-0.330,-0.105
965,-0.325,-0.105
966,-0.330,-0.110
967,-0.315,-0.115
968,-0.305,-0.095
969,-0.310,-0.085
970,-0.320,-0.100
971,-0.325,-0.125
972,-0.320,-0.130
973,-0.310,-0.130
974,-0.280,-0.105
975,-0.265,-0.120
976,-0.245,-0.125
977,-0.240,-0.145
978,-0.230,-0.155
979,-0.230,-0.145
980,-0.225,-0.115
981,-0.220,-0.115
982,-0.235,-0.125
983,-0.250,-0.140
984,-0.265,-0.165
985,-0.275,-0.150
986,-0.255,-0.130
987,-0.260,-0.110
988,-0.255,-0.110
989,-0.270,-0.120
990,-0.300,-0.110
991,-0.315,-0.100
992,-0.315,-0.095
993,-0.320,-0.085
994,-0.325,-0.080
995,-0.335,-0.090
996,-0.355,-0.100
997,-0.365,-0.095
998,-0.365,-0.085
999,-0.380,-0.090
1000,-0.390,-0.100
1001,-0.400,-0.105
1002,-0.395,-0.100
1003,-0.380,-0.100
1004,-0.375,-0.095
1005,-0.385,-0.100
1006,-0.415,-0.110
1007,-0.420,-0.115
1008,-0.420,-0.115
1009,-0.425,-0.105
1010,-0.415,-0.095
1011,-0.405,-0.095
1012,-0.410,-0.100
1013,-0.425,-0.115
1014,-0.430,-0.115
1015,-0.410,-0.110
1016,-0.395,-0.105
1017,-0.400,-0.115
1018,-0.420,-0.140
1019,-0.425,-0.140
1020,-0.435,-0.135
1021,-0.450,-0.125
1022,-0.455,-0.110
1023,-0.465,-0.105
1024,-0.450,-0.125
1025,-0.410,-0.135
1026,-0.265,-0.135
1027,-0.025,-0.105
1028,0.205,-0.100
1029,0.460,-0.110
1030,0.715,-0.135
1031,0.975,-0.170
1032,1.095,-0.190
1033,1.010,-0.205
1034,0.755,-0.210
1035,0.460,-0.215
1036,0.190,-0.210
1037,-0.050,-0.180
1038,-0.185,-0.135
1039,-0.225,-0.085
1040,-0.250,-0.060
1041,-0.280,-0.060
1042,-0.325,-0.075
1043,-0.350,-0.090
1044,-0.355,-0.090
1045,-0.350,-0.075
1046,-0.365,-0.075
1047,-0.385,-0.075
1048,-0.425,-0.080
1049,-0.445,-0.090
1050,-0.445,-0.090
1051,-0.455,-0.095
1052,-0.450,-0.090
1053,-0.455,-0.090
1054,-0.480,-0.090
1055,-0.495,-0.100
1056,-0.485,-0.100
1057,-0.475,-0.085
1058,-0.470,-0.085
1059,-0.470,-0.080
1060,-0.480,-0.095
1061,-0.505,-0.115
1062,-0.500,-0.130
1063,-0.490,-0.130
1064,-0.480,-0.130
1065,-0.495,-0.130
1066,-0.500,-0.130
1067,-0.490,-0.140
1068,-0.490,-0.135
1069,-0.475,-0.135
1070,-0.465,-0.130
1071,-0.475,-0.135
1072,-0.475,-0.140
1073,-0.485,-0.135
1074,-0.490,-0.135
1075,-0.480,-0.120
1076,-0.475,-0.115
1077,-0.465,-0.105
1078,-0.475,-0.095
1079,-0.490,-0.090
1080,-0.475,-0.085
1081,-0.465,-0.075
1082,-0.475,-0.075
1083,-0.485,-0.070
1084,-0.485,-0.075
1085,-0.485,-0.070
1086,-0.475,-0.075
1087,-0.470,-0.065
1088,-0.465,-0.070
1089,-0.475,-0.065
1090,-0.475,-0.075
1091,-0.480,-0.085
1092,-0.470,-0.085
1093,-0.475,-0.085
1094,-0.460,-0.105
1095,-0.460,-0.105
1096,-0.465,-0.105
1097,-0.485,-0.110
1098,-0.475,-0.100
1099,-0.470,-0.100
1100,-0.455,-0.100
1101,-0.465,-0.095
1102,-0.455,-0.100
1103,-0.460,-0.100
1104,-0.460,-0.100
1105,-0.455,-0.095
1106,-0.435,-0.105
1107,-0.435,-0.115
1108,-0.430,-0.135
1109,-0.435,-0.140
1110,-0.435,-0.140
1111,-0.415,-0.130
1112,-0.410,-0.130
1113,-0.400,-0.130
1114,-0.395,-0.130
1115,-0.410,-0.130
1116,-0.400,-0.140
1117,-0.380,-0.125
1118,-0.355,-0.130
1119,-0.355,-0.120
1120,-0.375,-0.120
1121,-0.355,-0.125
1122,-0.345,-0.115
1123,-0.320,-0.105
1124,-0.305,-0.100
1125,-0.290,-0.090
1126,-0.290,-0.090
1127,-0.280,-0.105
1128,-0.275,-0.095
1129,-0.255,-0.095
1130,-0.235,-0.090
1131,-0.235,-0.090
1132,-0.235,-0.095
1133,-0.245,-0.090
1134,-0.240,-0.095
1135,-0.210,-0.100
1136,-0.195,-0.115
1137,-0.180,-0.115
1138,-0.190,-0.120
1139,-0.195,-0.140
1140,-0.190,-0.135
1141,-0.185,-0.120
1142,-0.175,-0.120
1143,-0.170,-0.120
1144,-0.180,-0.120
1145,-0.185,-0.135
1146,-0.175,-0.135
1147,-0.190,-0.135
1148,-0.190,-0.130
1149,-0.195,-0.125
1150,-0.210,-0.140
1151,-0.235,-0.165
1152,-0.260,-0.155
1153,-0.255,-0.160
1154,-0.255,-0.145
1155,-0.270,-0.155
1156,-0.295,-0.160
1157,-0.320,-0.165
1158,-0.335,-0.160
1159,-0.345,-0.140
1160,-0.325,-0.130
1161,-0.330,-0.125
1162,-0.355,-0.140
1163,-0.370,-0.145
1164,-0.370,-0.135
1165,-0.375,-0.125
1166,-0.365,-0.100
1167,-0.375,-0.085
1168,-0.380,-0.100
1169,-0.390,-0.100
1170,-0.410,-0.100
1171,-0.405,-0.085
1172,-0.405,-0.085
1173,-0.395,-0.090
1174,-0.410,-0.090
1175,-0.420,-0.090
1176,-0.420,-0.090
1177,-0.410,-0.085
1178,-0.390,-0.090
1179,-0.395,-0.095
1180,-0.405,-0.090
1181,-0.415,-0.105
1182,-0.420,-0.105
1183,-0.415,-0.110
1184,-0.410,-0.115
1185,-0.415,-0.120
1186,-0.420,-0.110
1187,-0.425,-0.115
1188,-0.425,-0.110
1189,-0.425,-0.105
1190,-0.400,-0.105
1191,-0.405,-0.115
1192,-0.415,-0.110
1193,-0.425,-0.110
1194,-0.420,-0.110
1195,-0.420,-0.120
1196,-0.420,-0.130
1197,-0.430,-0.135
1198,-0.430,-0.145
1199,-0.430,-0.155
1200,-0.430,-0.140
1201,-0.405,-0.140
1202,-0.405,-0.145
1203,-0.405,-0.145
1204,-0.415,-0.150
1205,-0.430,-0.145
1206,-0.420,-0.130
1207,-0.415,-0.140
1208,-0.410,-0.145
1209,-0.400,-0.145
1210,-0.415,-0.135
1211,-0.415,-0.125
1212,-0.415,-0.115
1213,-0.410,-0.105
1214,-0.390,-0.105
1215,-0.390,-0.110
1216,-0.400,-0.100
1217,-0.410,-0.105
1218,-0.415,-0.095
1219,-0.395,-0.090
1220,-0.385,-0.100
1221,-0.390,-0.100
1222,-0.405,-0.095
1223,-0.395,-0.105
1224,-0.400,-0.105
1225,-0.385,-0.105
1226,-0.380,-0.115
1227,-0.390,-0.125
1228,-0.400,-0.125
1229,-0.415,-0.130
1230,-0.410,-0.130
1231,-0.400,-0.125
1232,-0.400,-0.130
1233,-0.410,-0.125
1234,-0.420,-0.130
1235,-0.405,-0.130
1236,-0.410,-0.125
1237,-0.400,-0.125
1238,-0.400,-0.125
1239,-0.395,-0.145
1240,-0.400,-0.145
1241,-0.415,-0.155
1242,-0.420,-0.150
1243,-0.415,-0.140
1244,-0.410,-0.145
1245,-0.420,-0.155
1246,-0.420,-0.155
1247,-0.420,-0.155
1248,-0.430,-0.145
1249,-0.415,-0.155
1250,-0.395,-0.155
1251,-0.400,-0.155
1252,-0.405,-0.135
1253,-0.420,-0.140
1254,-0.435,-0.125
1255,-0.425,-0.130
1256,-0.420,-0.110
1257,-0.415,-0.110
1258,-0.405,-0.115
1259,-0.410,-0.120
1260,-0.430,-0.100
1261,-0.430,-0.095
1262,-0.395,-0.100
1263,-0.410,-0.095
1264,-0.420,-0.105
1265,-0.425,-0.110
1266,-0.415,-0.125
1267,-0.405,-0.110
1268,-0.410,-0.105
1269,-0.405,-0.115
1270,-0.415,-0.115
1271,-0.415,-0.130
1272,-0.415,-0.135
1273,-0.405,-0.125
1274,-0.385,-0.125
1275,-0.410,-0.120
1276,-0.420,-0.130
1277,-0.430,-0.130
1278,-0.420,-0.135
1279,-0.410,-0.135
1280,-0.400,-0.115
1281,-0.405,-0.125
1282,-0.420,-0.130
1283,-0.420,-0.155
1284,-0.430,-0.150
1285,-0.415,-0.160
1286,-0.400,-0.155
1287,-0.410,-0.150
1288,-0.405,-0.160
1289,-0.405,-0.160
1290,-0.415,-0.160
1291,-0.400,-0.160
1292,-0.410,-0.150
1293,-0.410,-0.150
1294,-0.420,-0.160
1295,-0.410,-0.155
1296,-0.405,-0.150
1297,-0.390,-0.145
1298,-0.375,-0.135
1299,-0.375,-0.130
1300,-0.375,-0.125
1301,-0.375,-0.110
1302,-0.375,-0.110
1303,-0.365,-0.110
1304,-0.345,-0.095
1305,-0.345,-0.100
1306,-0.350,-0.100
1307,-0.375,-0.105
1308,-0.370,-0.115
1309,-0.335,-0.105
1310,-0.290,-0.095
1311,-0.270,-0.095
1312,-0.250,-0.105
1313,-0.235,-0.115
1314,-0.225,-0.125
1315,-0.225,-0.120
1316,-0.225,-0.125
1317,-0.245,-0.135
1318,-0.245,-0.130
1319,-0.260,-0.145
1320,-0.270,-0.145
1321,-0.275,-0.135
1322,-0.270,-0.130
1323,-0.275,-0.130
1324,-0.290,-0.140
1325,-0.310,-0.160
1326,-0.315,-0.170
1327,-0.320,-0.155
1328,-0.320,-0.160
1329,-0.330,-0.155
1330,-0.355,-0.175
1331,-0.380,-0.185
1332,-0.390,-0.175
1333,-0.395,-0.180
1334,-0.385,-0.175
1335,-0.400,-0.170
1336,-0.400,-0.180
1337,-0.420,-0.180
1338,-0.435,-0.180
1339,-0.425,-0.175
1340,-0.410,-0.170
1341,-0.420,-0.150
1342,-0.420,-0.155
1343,-0.430,-0.155
1344,-0.435,-0.150
1345,-0.430,-0.140
1346,-0.415,-0.130
1347,-0.425,-0.135
1348,-0.435,-0.130
1349,-0.440,-0.140
1350,-0.425,-0.130
1351,-0.430,-0.125
1352,-0.420,-0.120
1353,-0.410,-0.120
1354,-0.420,-0.120
1355,-0.430,-0.140
1356,-0.455,-0.135
1357,-0.460,-0.140
1358,-0.470,-0.140
1359,-0.490,-0.140
1360,-0.475,-0.145
1361,-0.415,-0.145
1362,-0.270,-0.145
1363,-0.045,-0.140
1364,0.180,-0.140
1365,0.430,-0.135
1366,0.720,-0.155
1367,0.980,-0.180
1368,1.100,-0.210
1369,1.040,-0.250
1370,0.790,-0.290
1371,0.480,-0.300
1372,0.175,-0.290
1373,-0.075,-0.260
1374,-0.230,-0.230
1375,-0.280,-0.180
1376,-0.305,-0.170
1377,-0.355,-0.180
1378,-0.380,-0.190
1379,-0.395,-0.180
1380,-0.395,-0.180
1381,-0.395,-0.170
1382,-0.400,-0.180
1383,-0.430,-0.190
1384,-0.455,-0.180
1385,-0.470,-0.175
1386,-0.485,-0.175
1387,-0.485,-0.165
1388,-0.485,-0.165
1389,-0.505,-0.160
1390,-0.510,-0.150
1391,-0.505,-0.145
1392,-0.515,-0.125
1393,-0.500,-0.130
1394,-0.490,-0.130
1395,-0.490,-0.135
1396,-0.495,-0.135
1397,-0.510,-0.130
1398,-0.525,-0.130
1399,-0.510,-0.115
1400,-0.490,-0.140
1401,-0.490,-0.145
1402,-0.485,-0.150
1403,-0.490,-0.140
1404,-0.505,-0.145
1405,-0.500,-0.150
1406,-0.485,-0.140
1407,-0.490,-0.145
1408,-0.490,-0.150
1409,-0.495,-0.165
1410,-0.485,-0.160
1411,-0.485,-0.145
1412,-0.485,-0.160
1413,-0.485,-0.160
1414,-0.490,-0.175
1415,-0.490,-0.160
1416,-0.485,-0.150
1417,-0.470,-0.155
1418,-0.470,-0.175
1419,-0.480,-0.180
1420,-0.475,-0.190
1421,-0.490,-0.190
1422,-0.490,-0.170
1423,-0.470,-0.160
1424,-0.455,-0.180
1425,-0.450,-0.185
1426,-0.455,-0.200
1427,-0.460,-0.185
1428,-0.470,-0.170
1429,-0.460,-0.170
1430,-0.455,-0.165
1431,-0.445,-0.175
1432,-0.465,-0.185
1433,-0.470,-0.170
1434,-0.460,-0.150
1435,-0.450,-0.145
1436,-0.430,-0.140
1437,-0.435,-0.155
1438,-0.425,-0.150
1439,-0.430,-0.145
1440,-0.435,-0.135
1441,-0.430,-0.125
1442,-0.420,-0.130
1443,-0.420,-0.150
1444,-0.420,-0.150
1445,-0.425,-0.150
1446,-0.410,-0.135
1447,-0.390,-0.145
1448,-0.375,-0.150
1449,-0.380,-0.160
1450,-0.370,-0.160
1451,-0.370,-0.170
1452,-0.380,-0.160
1453,-0.370,-0.160
1454,-0.355,-0.165
1455,-0.345,-0.165
1456,-0.355,-0.185
1457,-0.345,-0.175
1458,-0.340,-0.180
1459,-0.315,-0.175
1460,-0.300,-0.180
1461,-0.295,-0.195
1462,-0.280,-0.200
1463,-0.280,-0.210
1464,-0.270,-0.210
1465,-0.250,-0.195
1466,-0.245,-0.210
1467,-0.245,-0.225
1468,-0.235,-0.215
1469,-0.230,-0.220
1470,-0.235,-0.210
1471,-0.225,-0.190
1472,-0.205,-0.200
1473,-0.195,-0.200
1474,-0.195,-0.215
1475,-0.195,-0.215
1476,-0.200,-0.205
1477,-0.180,-0.185
1478,-0.170,-0.185
1479,-0.170,-0.190
1480,-0.170,-0.205
1481,-0.185,-0.200
1482,-0.185,-0.195
1483,-0.175,-0.155
1484,-0.165,-0.150
1485,-0.165,-0.155
1486,-0.180,-0.175
1487,-0.180,-0.195
1488,-0.185,-0.165
1489,-0.195,-0.155
1490,-0.205,-0.150
1491,-0.230,-0.145
1492,-0.240,-0.170
1493,-0.245,-0.190
1494,-0.265,-0.175
1495,-0.270,-0.155
1496,-0.270,-0.165
1497,-0.285,-0.170
1498,-0.305,-0.185
1499,-0.315,-0.185
1500,-0.315,-0.175
1501,-0.315,-0.155
1502,-0.310,-0.150
1503,-0.315,-0.160
1504,-0.320,-0.180
1505,-0.335,-0.185
1506,-0.340,-0.180
1507,-0.340,-0.160
1508,-0.335,-0.165
1509,-0.340,-0.180
1510,-0.345,-0.195
1511,-0.360,-0.220
1512,-0.365,-0.200
1513,-0.355,-0.185
1514,-0.350,-0.170
1515,-0.345,-0.180
1516,-0.360,-0.200
1517,-0.375,-0.210
1518,-0.370,-0.185
1519,-0.370,-0.180
1520,-0.365,-0.165
1521,-0.360,-0.170
1522,-0.365,-0.200
1523,-0.375,-0.185
1524,-0.365,-0.170
1525,-0.350,-0.160
1526,-0.330,-0.150
1527,-0.345,-0.145
1528,-0.350,-0.160
1529,-0.350,-0.165
1530,-0.350,-0.160
1531,-0.345,-0.135
1532,-0.330,-0.110
1533,-0.335,-0.125
1534,-0.340,-0.135
1535,-0.355,-0.150
1536,-0.365,-0.145
1537,-0.340,-0.130
1538,-0.330,-0.125
1539,-0.335,-0.135
1540,-0.340,-0.155
1541,-0.345,-0.180
1542,-0.345,-0.160
1543,-0.340,-0.155
1544,-0.320,-0.155
1545,-0.330,-0.155
1546,-0.340,-0.165
1547,-0.330,-0.170
1548,-0.335,-0.180
1549,-0.335,-0.165
1550,-0.330,-0.150
1551,-0.335,-0.150
1552,-0.335,-0.170
1553,-0.335,-0.180
1554,-0.335,-0.190
1555,-0.325,-0.190
1556,-0.310,-0.175
1557,-0.315,-0.185
1558,-0.325,-0.205
1559,-0.320,-0.200
1560,-0.335,-0.210
1561,-0.320,-0.195
1562,-0.310,-0.185
1563,-0.315,-0.180
1564,-0.320,-0.195
1565,-0.320,-0.210
1566,-0.320,-0.205
1567,-0.320,-0.200
1568,-0.310,-0.180
1569,-0.320,-0.165
1570,-0.320,-0.170
1571,-0.330,-0.160
1572,-0.340,-0.175
1573,-0.320,-0.145
1574,-0.310,-0.150
1575,-0.310,-0.150
1576,-0.325,-0.145
1577,-0.335,-0.165
1578,-0.335,-0.155
1579,-0.315,-0.145
1580,-0.315,-0.135
1581,-0.330,-0.145
1582,-0.330,-0.140
1583,-0.330,-0.150
1584,-0.330,-0.160
1585,-0.330,-0.160
1586,-0.310,-0.160
1587,-0.320,-0.165
1588,-0.330,-0.160
1589,-0.330,-0.170
1590,-0.330,-0.165
1591,-0.325,-0.160
1592,-0.315,-0.170
1593,-0.320,-0.160
1594,-0.325,-0.165
1595,-0.330,-0.170
1596,-0.335,-0.160
1597,-0.325,-0.155
1598,-0.305,-0.165
1599,-0.315,-0.165
1600,-0.320,-0.180
1601,-0.330,-0.185
1602,-0.330,-0.185
1603,-0.315,-0.185
1604,-0.315,-0.190
1605,-0.310,-0.195
1606,-0.325,-0.205
1607,-0.325,-0.195
1608,-0.325,-0.195
1609,-0.315,-0.175
1610,-0.310,-0.180
1611,-0.315,-0.190
1612,-0.320,-0.195
1613,-0.325,-0.185
1614,-0.320,-0.170
1615,-0.315,-0.165
1616,-0.315,-0.160
1617,-0.310,-0.155
1618,-0.325,-0.170
1619,-0.330,-0.145
1620,-0.325,-0.130
1621,-0.325,-0.125
1622,-0.310,-0.135
1623,-0.300,-0.140
1624,-0.320,-0.155
1625,-0.320,-0.150
1626,-0.330,-0.130
1627,-0.325,-0.120
1628,-0.310,-0.130
1629,-0.320,-0.140
1630,-0.315,-0.160
1631,-0.315,-0.160
1632,-0.320,-0.155
1633,-0.325,-0.140
1634,-0.310,-0.140
1635,-0.305,-0.150
1636,-0.310,-0.175
1637,-0.320,-0.185
1638,-0.330,-0.165
1639,-0.315,-0.155
1640,-0.295,-0.145
1641,-0.290,-0.150
1642,-0.290,-0.175
1643,-0.310,-0.170
1644,-0.300,-0.160
1645,-0.285,-0.145
1646,-0.280,-0.145
1647,-0.280,-0.165
1648,-0.275,-0.185
1649,-0.285,-0.185
1650,-0.275,-0.185
1651,-0.250,-0.170
1652,-0.220,-0.170
1653,-0.200,-0.170
1654,-0.200,-0.190
1655,-0.180,-0.195
1656,-0.155,-0.180
1657,-0.130,-0.150
1658,-0.125,-0.170
1659,-0.130,-0.155
1660,-0.165,-0.175
1661,-0.180,-0.190
1662,-0.190,-0.165
1663,-0.195,-0.155
1664,-0.190,-0.140
1665,-0.200,-0.140
1666,-0.215,-0.155
1667,-0.220,-0.155
1668,-0.225,-0.145
1669,-0.230,-0.125
1670,-0.215,-0.130
1671,-0.235,-0.125
1672,-0.255,-0.135
1673,-0.260,-0.145
1674,-0.285,-0.140
1675,-0.295,-0.125
1676,-0.310,-0.120
1677,-0.310,-0.125
1678,-0.325,-0.140
1679,-0.335,-0.145
1680,-0.355,-0.160
1681,-0.350,-0.155
1682,-0.350,-0.140
1683,-0.360,-0.130
1684,-0.360,-0.150
1685,-0.370,-0.170
1686,-0.375,-0.175
1687,-0.360,-0.150
1688,-0.350,-0.125
1689,-0.350,-0.135
1690,-0.370,-0.150
1691,-0.385,-0.170
1692,-0.385,-0.175
1693,-0.375,-0.175
1694,-0.360,-0.170
1695,-0.370,-0.175
1696,-0.370,-0.185
1697,-0.370,-0.195
1698,-0.375,-0.200
1699,-0.390,-0.185
1700,-0.385,-0.175
1701,-0.405,-0.160
1702,-0.430,-0.160
1703,-0.430,-0.175
1704,-0.415,-0.185
1705,-0.300,-0.170
1706,-0.135,-0.160
1707,0.075,-0.150
1708,0.275,-0.155
1709,0.515,-0.165
1710,0.785,-0.185
1711,0.975,-0.190
1712,1.000,-0.220
1713,0.820,-0.260
1714,0.530,-0.285
1715,0.265,-0.280
1716,0.000,-0.250
1717,-0.200,-0.205
1718,-0.270,-0.140
1719,-0.300,-0.110
1720,-0.335,-0.115
1721,-0.370,-0.125
1722,-0.370,-0.120
1723,-0.360,-0.140
1724,-0.365,-0.140
1725,-0.390,-0.135
1726,-0.415,-0.145
1727,-0.455,-0.150
1728,-0.480,-0.155
1729,-0.470,-0.150
1730,-0.465,-0.135
1731,-0.480,-0.130
1732,-0.475,-0.140
1733,-0.500,-0.145
1734,-0.495,-0.145
1735,-0.485,-0.155
1736,-0.490,-0.155
1737,-0.490,-0.145
1738,-0.500,-0.145
1739,-0.515,-0.160
1740,-0.515,-0.165
1741,-0.500,-0.180
1742,-0.485,-0.180
1743,-0.485,-0.160
1744,-0.490,-0.165
1745,-0.510,-0.170
1746,-0.520,-0.165
1747,-0.520,-0.165
1748,-0.510,-0.160
1749,-0.495,-0.175
1750,-0.490,-0.180
1751,-0.500,-0.175
1752,-0.500,-0.160
1753,-0.515,-0.155
1754,-0.515,-0.155
1755,-0.520,-0.150
1756,-0.520,-0.135
1757,-0.520,-0.140
1758,-0.525,-0.120
1759,-0.505,-0.120
1760,-0.500,-0.125
1761,-0.490,-0.135
1762,-0.515,-0.130
1763,-0.515,-0.140
1764,-0.535,-0.120
1765,-0.510,-0.105
1766,-0.515,-0.110
1767,-0.515,-0.120
1768,-0.540,-0.120
1769,-0.545,-0.125
1770,-0.520,-0.115
1771,-0.510,-0.115
1772,-0.485,-0.115
1773,-0.485,-0.125
1774,-0.495,-0.145
1775,-0.510,-0.155
1776,-0.525,-0.135
1777,-0.510,-0.125
1778,-0.500,-0.110
1779,-0.495,-0.130
1780,-0.510,-0.150
1781,-0.505,-0.145
1782,-0.500,-0.150
1783,-0.475,-0.130
1784,-0.490,-0.120
1785,-0.480,-0.145
1786,-0.485,-0.160
1787,-0.495,-0.185
1788,-0.495,-0.180
1789,-0.495,-0.160
1790,-0.495,-0.160
1791,-0.490,-0.155
1792,-0.495,-0.170
1793,-0.485,-0.190
1794,-0.470,-0.185
1795,-0.450,-0.160
1796,-0.440,-0.150
1797,-0.440,-0.155
1798,-0.450,-0.175
1799,-0.465,-0.185
1800,-0.455,-0.150
1801,-0.445,-0.150
1802,-0.415,-0.135
1803,-0.420,-0.125
1804,-0.410,-0.145
1805,-0.415,-0.145
1806,-0.410,-0.140
1807,-0.395,-0.110
1808,-0.370,-0.095
1809,-0.365,-0.100
1810,-0.355,-0.115
1811,-0.360,-0.135
1812,-0.370,-0.140
1813,-0.355,-0.120
1814,-0.320,-0.105
1815,-0.305,-0.115
1816,-0.320,-0.135
1817,-0.325,-0.155
1818,-0.330,-0.160
1819,-0.315,-0.145
1820,-0.295,-0.140
1821,-0.300,-0.140
1822,-0.280,-0.160
1823,-0.285,-0.175
1824,-0.280,-0.175
1825,-0.275,-0.145
1826,-0.265,-0.145
1827,-0.265,-0.150
1828,-0.270,-0.155
1829,-0.280,-0.170
1830,-0.290,-0.180
1831,-0.295,-0.170
1832,-0.295,-0.160
1833,-0.305,-0.160
1834,-0.320,-0.190
1835,-0.320,-0.195
1836,-0.335,-0.185
1837,-0.330,-0.170
1838,-0.335,-0.145
1839,-0.360,-0.160
1840,-0.355,-0.155
1841,-0.365,-0.180
1842,-0.380,-0.175
1843,-0.405,-0.140
1844,-0.405,-0.125
1845,-0.415,-0.125
1846,-0.440,-0.140
1847,-0.435,-0.150
1848,-0.445,-0.125
1849,-0.440,-0.110
1850,-0.420,-0.085
1851,-0.425,-0.090
1852,-0.445,-0.120
1853,-0.450,-0.120
1854,-0.460,-0.115
1855,-0.445,-0.095
1856,-0.450,-0.080
1857,-0.455,-0.085
1858,-0.465,-0.105
1859,-0.470,-0.105
1860,-0.465,-0.110
1861,-0.440,-0.105
1862,-0.440,-0.100
1863,-0.460,-0.110
1864,-0.465,-0.130
1865,-0.465,-0.140
1866,-0.455,-0.130
1867,-0.455,-0.110
1868,-0.480,-0.110
1869,-0.490,-0.105
1870,-0.480,-0.120
1871,-0.480,-0.135
1872,-0.505,-0.130
1873,-0.485,-0.110
1874,-0.460,-0.095
1875,-0.455,-0.115
1876,-0.465,-0.140
1877,-0.480,-0.160
1878,-0.490,-0.155
1879,-0.465,-0.135
1880,-0.435,-0.140
1881,-0.430,-0.130
1882,-0.455,-0.155
1883,-0.485,-0.170
1884,-0.490,-0.140
1885,-0.460,-0.125
1886,-0.445,-0.125
1887,-0.450,-0.125
1888,-0.470,-0.140
1889,-0.485,-0.130
1890,-0.470,-0.125
1891,-0.450,-0.090
1892,-0.445,-0.090
1893,-0.440,-0.085
1894,-0.425,-0.100
1895,-0.460,-0.100
1896,-0.460,-0.100
1897,-0.455,-0.080
1898,-0.455,-0.070
1899,-0.455,-0.090
1900,-0.450,-0.100
1901,-0.460,-0.105
1902,-0.455,-0.095
1903,-0.440,-0.075
1904,-0.430,-0.090
1905,-0.430,-0.110
1906,-0.445,-0.125
1907,-0.450,-0.125
1908,-0.450,-0.120
1909,-0.445,-0.095
1910,-0.445,-0.090
1911,-0.460,-0.105
1912,-0.470,-0.125
1913,-0.460,-0.120
1914,-0.465,-0.110
1915,-0.450,-0.090
1916,-0.445,-0.090
1917,-0.430,-0.105
1918,-0.445,-0.135
1919,-0.460,-0.140
1920,-0.460,-0.130
1921,-0.435,-0.125
1922,-0.440,-0.120
1923,-0.430,-0.135
1924,-0.425,-0.165
1925,-0.445,-0.135
1926,-0.455,-0.135
1927,-0.465,-0.110
1928,-0.465,-0.120
1929,-0.470,-0.135
1930,-0.460,-0.135
1931,-0.455,-0.125
1932,-0.445,-0.110
1933,-0.445,-0.100
1934,-0.455,-0.090
1935,-0.450,-0.095
1936,-0.445,-0.100
1937,-0.450,-0.100
1938,-0.470,-0.075
1939,-0.480,-0.065
1940,-0.455,-0.085
1941,-0.435,-0.090
1942,-0.440,-0.105
1943,-0.450,-0.095
1944,-0.470,-0.080
1945,-0.465,-0.070
1946,-0.445,-0.090
1947,-0.445,-0.110
1948,-0.465,-0.110
1949,-0.470,-0.115
1950,-0.465,-0.100
1951,-0.465,-0.095
1952,-0.465,-0.090
1953,-0.475,-0.115
1954,-0.480,-0.120
1955,-0.480,-0.120
1956,-0.475,-0.100
1957,-0.475,-0.100
1958,-0.455,-0.100
1959,-0.460,-0.115
1960,-0.470,-0.120
1961,-0.480,-0.115
1962,-0.480,-0.115
1963,-0.460,-0.110
1964,-0.460,-0.120
1965,-0.460,-0.120
1966,-0.460,-0.125
1967,-0.460,-0.140
1968,-0.470,-0.130
1969,-0.450,-0.120
1970,-0.440,-0.125
1971,-0.420,-0.125
1972,-0.415,-0.135
1973,-0.425,-0.125
1974,-0.425,-0.110
1975,-0.420,-0.100
1976,-0.405,-0.105
1977,-0.390,-0.100
1978,-0.400,-0.090
1979,-0.415,-0.090
1980,-0.400,-0.070
1981,-0.365,-0.070
1982,-0.320,-0.065
1983,-0.290,-0.075
1984,-0.305,-0.090
1985,-0.345,-0.075
1986,-0.385,-0.085
1987,-0.345,-0.080
1988,-0.340,-0.085
1989,-0.325,-0.080
1990,-0.350,-0.085
1991,-0.380,-0.100
1992,-0.400,-0.105
1993,-0.390,-0.110
1994,-0.380,-0.110
1995,-0.400,-0.105
1996,-0.405,-0.110
1997,-0.430,-0.110
1998,-0.450,-0.110
1999,-0.455,-0.105
2000,-0.450,-0.100
2001,-0.460,-0.100
2002,-0.470,-0.090
2003,-0.475,-0.120
2004,-0.490,-0.135
2005,-0.475,-0.130
2006,-0.470,-0.125
2007,-0.465,-0.125
2008,-0.465,-0.115
2009,-0.475,-0.130
2010,-0.470,-0.145
2011,-0.455,-0.135
2012,-0.460,-0.125
2013,-0.505,-0.140
2014,-0.550,-0.125
2015,-0.550,-0.140
2016,-0.535,-0.130
2017,-0.500,-0.115
2018,-0.465,-0.100
2019,-0.450,-0.090
2020,-0.475,-0.095
2021,-0.510,-0.105
2022,-0.535,-0.095
2023,-0.545,-0.085
2024,-0.520,-0.075
2025,-0.525,-0.055
2026,-0.525,-0.060
2027,-0.540,-0.080
2028,-0.535,-0.075
2029,-0.460,-0.065
2030,-0.310,-0.055
2031,-0.080,-0.055
2032,0.185,-0.065
2033,0.475,-0.095
2034,0.780,-0.120
2035,1.025,-0.135
2036,1.065,-0.155
2037,0.850,-0.180
2038,0.515,-0.190
2039,0.205,-0.185
2040,-0.095,-0.150
2041,-0.290,-0.095
2042,-0.380,-0.060
2043,-0.405,-0.050
2044,-0.465,-0.085
2045,-0.485,-0.110
2046,-0.505,-0.115
2047,-0.505,-0.100
2048,-0.505,-0.095
2049,-0.505,-0.105
2050,-0.540,-0.110
2051,-0.565,-0.135
2052,-0.590,-0.135
2053,-0.575,-0.120
2054,-0.555,-0.110
2055,-0.555,-0.105
2056,-0.560,-0.105
2057,-0.565,-0.140
2058,-0.585,-0.125
2059,-0.575,-0.125
2060,-0.565,-0.105
2061,-0.570,-0.120
2062,-0.560,-0.130
2063,-0.565,-0.120
2064,-0.570,-0.110
2065,-0.570,-0.090
2066,-0.560,-0.085
2067,-0.550,-0.090
2068,-0.570,-0.075
2069,-0.560,-0.080
2070,-0.580,-0.095
2071,-0.570,-0.070
2072,-0.575,-0.065
2073,-0.565,-0.055
2074,-0.575,-0.070
2075,-0.570,-0.085
2076,-0.570,-0.110
2077,-0.580,-0.095
2078,-0.570,-0.100
2079,-0.560,-0.095
2080,-0.565,-0.105
2081,-0.560,-0.115
2082,-0.565,-0.120
2083,-0.555,-0.120
2084,-0.555,-0.100
2085,-0.565,-0.095
2086,-0.555,-0.105
2087,-0.560,-0.110
2088,-0.575,-0.110
2089,-0.565,-0.080
2090,-0.550,-0.075
2091,-0.540,-0.105
2092,-0.530,-0.130
2093,-0.540,-0.145
2094,-0.570,-0.140
2095,-0.570,-0.125
2096,-0.565,-0.130
2097,-0.565,-0.120
2098,-0.555,-0.145
2099,-0.555,-0.155
2100,-0.555,-0.145
2101,-0.530,-0.125
2102,-0.520,-0.110
2103,-0.525,-0.105
2104,-0.525,-0.120
2105,-0.535,-0.135
2106,-0.530,-0.130
2107,-0.520,-0.095
2108,-0.500,-0.085
2109,-0.500,-0.080
2110,-0.515,-0.095
2111,-0.525,-0.105
2112,-0.525,-0.090
2113,-0.490,-0.075
2114,-0.475,-0.070
2115,-0.465,-0.070
2116,-0.480,-0.095
2117,-0.470,-0.115
2118,-0.470,-0.105
2119,-0.450,-0.090
2120,-0.445,-0.085
2121,-0.440,-0.095
2122,-0.435,-0.100
2123,-0.445,-0.120
2124,-0.445,-0.110
2125,-0.435,-0.095
2126,-0.435,-0.100
2127,-0.420,-0.100
2128,-0.395,-0.120
2129,-0.380,-0.140
2130,-0.355,-0.125
2131,-0.340,-0.125
2132,-0.330,-0.120
2133,-0.345,-0.135
2134,-0.340,-0.155
2135,-0.345,-0.170
2136,-0.345,-0.160
2137,-0.330,-0.150
2138,-0.310,-0.150
2139,-0.305,-0.165
2140,-0.295,-0.175
2141,-0.300,-0.190
2142,-0.315,-0.170
2143,-0.305,-0.155
2144,-0.280,-0.145
2145,-0.295,-0.155
2146,-0.300,-0.165
2147,-0.305,-0.175
2148,-0.310,-0.160
2149,-0.315,-0.140
2150,-0.325,-0.125
2151,-0.320,-0.120
2152,-0.320,-0.135
2153,-0.350,-0.135
2154,-0.360,-0.105
2155,-0.370,-0.090
2156,-0.370,-0.080
2157,-0.370,-0.090
2158,-0.385,-0.100
2159,-0.405,-0.105
2160,-0.410,-0.100
2161,-0.405,-0.090
2162,-0.410,-0.090
2163,-0.415,-0.090
2164,-0.435,-0.110
2165,-0.445,-0.120
2166,-0.470,-0.115
2167,-0.445,-0.105
2168,-0.445,-0.095
2169,-0.425,-0.115
2170,-0.455,-0.135
2171,-0.460,-0.125
2172,-0.465,-0.115
2173,-0.465,-0.090
2174,-0.465,-0.100
2175,-0.465,-0.120
2176,-0.455,-0.140
2177,-0.450,-0.145
2178,-0.460,-0.140
2179,-0.450,-0.130
2180,-0.445,-0.135
2181,-0.455,-0.140
2182,-0.465,-0.145
2183,-0.460,-0.155
2184,-0.465,-0.135
2185,-0.445,-0.130
2186,-0.430,-0.130
2187,-0.425,-0.130
2188,-0.445,-0.135
2189,-0.440,-0.130
2190,-0.450,-0.120
2191,-0.455,-0.115
2192,-0.435,-0.110
2193,-0.430,-0.105
2194,-0.430,-0.105
2195,-0.455,-0.095
2196,-0.465,-0.095
2197,-0.440,-0.090
2198,-0.425,-0.100
2199,-0.420,-0.105
2200,-0.440,-0.105
2201,-0.450,-0.100
2202,-0.435,-0.095
2203,-0.420,-0.080
2204,-0.400,-0.085
2205,-0.400,-0.095
2206,-0.410,-0.105
2207,-0.425,-0.115
2208,-0.425,-0.115
2209,-0.415,-0.120
2210,-0.415,-0.115
2211,-0.425,-0.115
2212,-0.415,-0.120
2213,-0.415,-0.125
2214,-0.415,-0.130
2215,-0.400,-0.120
2216,-0.400,-0.105
2217,-0.410,-0.110
2218,-0.425,-0.130
2219,-0.425,-0.150
2220,-0.420,-0.160
2221,-0.410,-0.155
2222,-0.400,-0.135
2223,-0.410,-0.135
2224,-0.425,-0.155
2225,-0.435,-0.170
2226,-0.440,-0.165
2227,-0.390,-0.135
2228,-0.385,-0.125
2229,-0.370,-0.125
2230,-0.360,-0.150
2231,-0.350,-0.160
2232,-0.355,-0.145
2233,-0.390,-0.130
2234,-0.410,-0.105
2235,-0.450,-0.110
2236,-0.460,-0.120
2237,-0.465,-0.125
2238,-0.465,-0.100
2239,-0.440,-0.100
2240,-0.390,-0.085
2241,-0.355,-0.105
2242,-0.305,-0.110
2243,-0.315,-0.130
2244,-0.370,-0.115
2245,-0.425,-0.100
2246,-0.435,-0.110
2247,-0.435,-0.120
2248,-0.420,-0.130
2249,-0.390,-0.130
2250,-0.370,-0.110
2251,-0.365,-0.095
2252,-0.350,-0.120
2253,-0.375,-0.130
2254,-0.390,-0.140
2255,-0.425,-0.130
2256,-0.420,-0.120
2257,-0.410,-0.130
2258,-0.405,-0.145
2259,-0.395,-0.140
2260,-0.395,-0.150
2261,-0.385,-0.145
2262,-0.390,-0.155
2263,-0.385,-0.155
2264,-0.380,-0.155
2265,-0.375,-0.150
2266,-0.365,-0.140
2267,-0.360,-0.165
2268,-0.355,-0.170
2269,-0.355,-0.155
2270,-0.350,-0.140
2271,-0.370,-0.130
2272,-0.375,-0.135
2273,-0.380,-0.145
2274,-0.385,-0.130
2275,-0.370,-0.120
2276,-0.355,-0.110
2277,-0.365,-0.105
2278,-0.370,-0.115
2279,-0.380,-0.120
2280,-0.380,-0.115
2281,-0.365,-0.095
2282,-0.340,-0.075
2283,-0.330,-0.090
2284,-0.335,-0.115
2285,-0.345,-0.135
2286,-0.350,-0.125
2287,-0.355,-0.115
2288,-0.325,-0.105
2289,-0.310,-0.105
2290,-0.320,-0.135
2291,-0.330,-0.130
2292,-0.320,-0.135
2293,-0.290,-0.110
2294,-0.255,-0.095
2295,-0.230,-0.095
2296,-0.190,-0.115
2297,-0.175,-0.130
2298,-0.185,-0.130
2299,-0.180,-0.125
2300,-0.200,-0.140
2301,-0.205,-0.150
2302,-0.220,-0.160
2303,-0.230,-0.165
2304,-0.235,-0.155
2305,-0.245,-0.135
2306,-0.250,-0.135
2307,-0.250,-0.150
2308,-0.255,-0.165
2309,-0.250,-0.165
2310,-0.250,-0.160
2311,-0.240,-0.135
2312,-0.255,-0.130
2313,-0.270,-0.145
2314,-0.275,-0.145
2315,-0.275,-0.135
2316,-0.285,-0.125
2317,-0.280,-0.110
2318,-0.305,-0.105
2319,-0.345,-0.115
2320,-0.365,-0.125
2321,-0.355,-0.120
2322,-0.365,-0.110
2323,-0.370,-0.090
2324,-0.355,-0.110
2325,-0.375,-0.105
2326,-0.365,-0.125
2327,-0.385,-0.130
2328,-0.380,-0.110
2329,-0.375,-0.095
2330,-0.360,-0.115
2331,-0.370,-0.125
2332,-0.375,-0.140
2333,-0.385,-0.145
2334,-0.375,-0.135
2335,-0.365,-0.130
2336,-0.345,-0.125
2337,-0.365,-0.140
2338,-0.385,-0.145
2339,-0.420,-0.140
2340,-0.440,-0.130
2341,-0.450,-0.120
2342,-0.380,-0.125
2343,-0.220,-0.135
2344,0.010,-0.150
2345,0.320,-0.155
2346,0.695,-0.155
2347,1.095,-0.155
2348,1.365,-0.170
2349,1.375,-0.210
2350,1.130,-0.220
2351,0.750,-0.235
2352,0.390,-0.230
2353,0.120,-0.185
2354,-0.015,-0.155
2355,-0.065,-0.135
2356,-0.100,-0.135
2357,-0.170,-0.135
2358,-0.200,-0.130
2359,-0.225,-0.110
2360,-0.235,-0.105
2361,-0.270,-0.100
2362,-0.305,-0.105
2363,-0.355,-0.110
2364,-0.375,-0.115
2365,-0.380,-0.105
2366,-0.395,-0.100
2367,-0.380,-0.095
2368,-0.395,-0.105
2369,-0.405,-0.115
2370,-0.425,-0.125
2371,-0.415,-0.120
2372,-0.410,-0.115
2373,-0.405,-0.115
2374,-0.400,-0.125
2375,-0.420,-0.130
2376,-0.430,-0.120
2377,-0.415,-0.120
2378,-0.415,-0.120
2379,-0.425,-0.105
2380,-0.435,-0.125
2381,-0.425,-0.145
2382,-0.430,-0.150
2383,-0.420,-0.140
2384,-0.410,-0.135
2385,-0.405,-0.130
2386,-0.415,-0.150
2387,-0.415,-0.170
2388,-0.425,-0.165
2389,-0.410,-0.155
2390,-0.400,-0.145
2391,-0.390,-0.140
2392,-0.405,-0.160
2393,-0.415,-0.160
2394,-0.420,-0.155
2395,-0.410,-0.140
2396,-0.390,-0.135
2397,-0.390,-0.140
2398,-0.395,-0.150
2399,-0.415,-0.155
2400,-0.420,-0.140
2401,-0.400,-0.120
2402,-0.395,-0.100
2403,-0.410,-0.105
2404,-0.420,-0.120
2405,-0.420,-0.125
2406,-0.415,-0.125
2407,-0.415,-0.110
2408,-0.390,-0.095
2409,-0.395,-0.110
2410,-0.390,-0.125
2411,-0.395,-0.145
2412,-0.390,-0.120
2413,-0.395,-0.120
2414,-0.390,-0.125
2415,-0.385,-0.135
2416,-0.385,-0.150
2417,-0.395,-0.155
2418,-0.385,-0.145
2419,-0.375,-0.130
2420,-0.360,-0.135
2421,-0.375,-0.140
2422,-0.370,-0.150
2423,-0.360,-0.145
2424,-0.355,-0.145
2425,-0.330,-0.130
2426,-0.320,-0.120
2427,-0.315,-0.145
2428,-0.320,-0.175
2429,-0.325,-0.180
2430,-0.320,-0.170
2431,-0.280,-0.160
2432,-0.260,-0.150
2433,-0.255,-0.165
2434,-0.260,-0.175
2435,-0.265,-0.190
2436,-0.260,-0.165
2437,-0.230,-0.155
2438,-0.205,-0.155
2439,-0.190,-0.165
2440,-0.190,-0.165
2441,-0.190,-0.160
2442,-0.185,-0.145
2443,-0.155,-0.120
2444,-0.135,-0.125
2445,-0.115,-0.130
2446,-0.125,-0.135
2447,-0.125,-0.150
2448,-0.110,-0.120
2449,-0.110,-0.115
2450,-0.105,-0.130
2451,-0.090,-0.120
2452,-0.090,-0.130
2453,-0.080,-0.140
2454,-0.080,-0.140
2455,-0.090,-0.135
2456,-0.065,-0.140
2457,-0.090,-0.150
2458,-0.090,-0.170
2459,-0.090,-0.165
2460,-0.100,-0.150
2461,-0.110,-0.150
2462,-0.125,-0.145
2463,-0.130,-0.150
2464,-0.145,-0.165
2465,-0.165,-0.155
2466,-0.190,-0.145
2467,-0.195,-0.140
2468,-0.200,-0.150
2469,-0.210,-0.165
2470,-0.230,-0.170
2471,-0.245,-0.180
2472,-0.260,-0.170
2473,-0.270,-0.165
2474,-0.265,-0.165
2475,-0.270,-0.175
2476,-0.280,-0.170
2477,-0.295,-0.170
2478,-0.325,-0.155
2479,-0.315,-0.155
2480,-0.310,-0.145
2481,-0.300,-0.155
2482,-0.290,-0.140
2483,-0.310,-0.140
2484,-0.320,-0.140
2485,-0.320,-0.125
2486,-0.305,-0.135
2487,-0.310,-0.140
2488,-0.330,-0.140
2489,-0.345,-0.125
2490,-0.355,-0.125
2491,-0.340,-0.125
2492,-0.330,-0.125
2493,-0.335,-0.120
2494,-0.325,-0.125
2495,-0.325,-0.135
2496,-0.330,-0.125
2497,-0.330,-0.130
2498,-0.320,-0.135
2499,-0.325,-0.140
2500,-0.330,-0.140
2501,-0.335,-0.145
2502,-0.335,-0.140
2503,-0.330,-0.140
2504,-0.315,-0.140
2505,-0.325,-0.140
2506,-0.320,-0.140
2507,-0.315,-0.140
2508,-0.325,-0.140
2509,-0.310,-0.135
2510,-0.315,-0.150
2511,-0.310,-0.145
2512,-0.295,-0.160
2513,-0.305,-0.165
2514,-0.315,-0.175
2515,-0.325,-0.180
2516,-0.310,-0.170
2517,-0.310,-0.160
2518,-0.305,-0.165
2519,-0.295,-0.180
2520,-0.310,-0.190
2521,-0.305,-0.170
2522,-0.295,-0.160
2523,-0.285,-0.155
2524,-0.285,-0.145
2525,-0.285,-0.175
2526,-0.300,-0.170
2527,-0.310,-0.145
2528,-0.300,-0.130
2529,-0.295,-0.125
2530,-0.280,-0.135
2531,-0.310,-0.135
2532,-0.310,-0.140
2533,-0.295,-0.115
2534,-0.275,-0.105
2535,-0.275,-0.105
2536,-0.290,-0.120
2537,-0.300,-0.125
2538,-0.310,-0.140
2539,-0.300,-0.115
2540,-0.275,-0.125
2541,-0.280,-0.130
2542,-0.285,-0.160
2543,-0.300,-0.180
2544,-0.310,-0.155
2545,-0.300,-0.140
2546,-0.280,-0.135
2547,-0.285,-0.145
2548,-0.300,-0.180
2549,-0.305,-0.170
2550,-0.310,-0.155
2551,-0.300,-0.140
2552,-0.295,-0.150
2553,-0.290,-0.175
2554,-0.285,-0.185
2555,-0.295,-0.180
2556,-0.295,-0.175
2557,-0.275,-0.165
2558,-0.280,-0.165
2559,-0.280,-0.175
2560,-0.300,-0.175
2561,-0.305,-0.185
2562,-0.300,-0.170
2563,-0.290,-0.160
2564,-0.285,-0.165
2565,-0.280,-0.160
2566,-0.285,-0.165
2567,-0.290,-0.160
2568,-0.300,-0.145
2569,-0.290,-0.130
2570,-0.295,-0.130
2571,-0.290,-0.135
2572,-0.290,-0.140
2573,-0.295,-0.130
2574,-0.300,-0.125
2575,-0.300,-0.120
2576,-0.295,-0.110
2577,-0.290,-0.115
2578,-0.295,-0.125
2579,-0.290,-0.130
2580,-0.310,-0.140
2581,-0.300,-0.140
2582,-0.290,-0.155
2583,-0.285,-0.145
2584,-0.285,-0.145
2585,-0.305,-0.150
2586,-0.300,-0.155
2587,-0.300,-0.155
2588,-0.295,-0.160
2589,-0.280,-0.155
2590,-0.285,-0.140
2591,-0.305,-0.150
2592,-0.300,-0.150
2593,-0.295,-0.160
2594,-0.270,-0.155
2595,-0.260,-0.170
2596,-0.260,-0.180
2597,-0.270,-0.180
2598,-0.285,-0.180
2599,-0.265,-0.185
2600,-0.250,-0.175
2601,-0.245,-0.175
2602,-0.255,-0.175
2603,-0.270,-0.190
2604,-0.270,-0.200
2605,-0.250,-0.175
2606,-0.230,-0.170
2607,-0.190,-0.155
2608,-0.150,-0.160
2609,-0.135,-0.155
2610,-0.135,-0.135
2611,-0.155,-0.135
2612,-0.150,-0.125
2613,-0.150,-0.135
2614,-0.150,-0.135
2615,-0.160,-0.155
2616,-0.185,-0.140
2617,-0.210,-0.145
2618,-0.205,-0.130
2619,-0.205,-0.125
2620,-0.215,-0.130
2621,-0.225,-0.135
2622,-0.230,-0.145
2623,-0.220,-0.140
2624,-0.210,-0.145
2625,-0.230,-0.145
2626,-0.250,-0.150
2627,-0.290,-0.165
2628,-0.300,-0.175
2629,-0.295,-0.160
2630,-0.305,-0.140
2631,-0.305,-0.145
2632,-0.330,-0.155
2633,-0.335,-0.170
2634,-0.335,-0.170
2635,-0.340,-0.180
2636,-0.335,-0.165
2637,-0.330,-0.155
2638,-0.320,-0.165
2639,-0.315,-0.195
2640,-0.340,-0.190
2641,-0.340,-0.200
2642,-0.315,-0.175
2643,-0.315,-0.175
2644,-0.335,-0.185
2645,-0.345,-0.210
2646,-0.350,-0.200
2647,-0.350,-0.195
2648,-0.335,-0.180
2649,-0.335,-0.170
2650,-0.330,-0.165
2651,-0.345,-0.180
2652,-0.355,-0.170
2653,-0.355,-0.150
2654,-0.365,-0.145
2655,-0.335,-0.140
2656,-0.205,-0.140
2657,0.015,-0.150
2658,0.320,-0.135
2659,0.695,-0.120
2660,1.075,-0.125
2661,1.325,-0.145
2662,1.305,-0.200
2663,1.045,-0.235
2664,0.690,-0.255
2665,0.360,-0.225
2666,0.105,-0.190
2667,-0.020,-0.160
2668,-0.055,-0.150
2669,-0.095,-0.165
2670,-0.145,-0.170
2671,-0.185,-0.160
2672,-0.205,-0.155
2673,-0.210,-0.150
2674,-0.235,-0.160
2675,-0.270,-0.170
2676,-0.285,-0.175
2677,-0.290,-0.145
2678,-0.300,-0.150
2679,-0.305,-0.155
2680,-0.320,-0.180
2681,-0.315,-0.200
2682,-0.305,-0.195
2683,-0.310,-0.190
2684,-0.360,-0.175
2685,-0.425,-0.185
2686,-0.470,-0.195
2687,-0.495,-0.200
2688,-0.495,-0.195
2689,-0.475,-0.185
2690,-0.455,-0.175
2691,-0.450,-0.170
2692,-0.450,-0.170
2693,-0.455,-0.180
2694,-0.450,-0.165
2695,-0.445,-0.155
2696,-0.425,-0.135
2697,-0.420,-0.130
2698,-0.420,-0.140
2699,-0.420,-0.145
2700,-0.420,-0.145
2701,-0.415,-0.125
2702,-0.415,-0.130
2703,-0.405,-0.130
2704,-0.415,-0.150
2705,-0.435,-0.155
2706,-0.435,-0.140
2707,-0.410,-0.125
2708,-0.400,-0.125
2709,-0.410,-0.130
2710,-0.410,-0.155
2711,-0.420,-0.170
2712,-0.415,-0.155
2713,-0.410,-0.140
2714,-0.415,-0.135
2715,-0.415,-0.145
2716,-0.420,-0.160
2717,-0.420,-0.170
2718,-0.435,-0.160
2719,-0.435,-0.145
2720,-0.430,-0.140
2721,-0.440,-0.150
2722,-0.435,-0.175
2723,-0.430,-0.180
2724,-0.430,-0.170
2725,-0.420,-0.160
2726,-0.405,-0.165
2727,-0.400,-0.165
2728,-0.420,-0.195
2729,-0.435,-0.200
2730,-0.445,-0.185
2731,-0.415,-0.170
2732,-0.405,-0.165
2733,-0.410,-0.180
2734,-0.415,-0.185
2735,-0.420,-0.200
2736,-0.435,-0.180
2737,-0.410,-0.155
2738,-0.400,-0.155
2739,-0.390,-0.160
2740,-0.390,-0.165
2741,-0.405,-0.175
2742,-0.395,-0.155
2743,-0.370,-0.130
2744,-0.365,-0.120
2745,-0.360,-0.125
2746,-0.360,-0.135
2747,-0.360,-0.140
2748,-0.330,-0.140
2749,-0.320,-0.115
2750,-0.315,-0.115
2751,-0.325,-0.120
2752,-0.330,-0.140
2753,-0.320,-0.150
2754,-0.320,-0.150
2755,-0.280,-0.140
2756,-0.250,-0.140
2757,-0.235,-0.130
2758,-0.210,-0.150
2759,-0.210,-0.170
2760,-0.225,-0.165
2761,-0.190,-0.155
2762,-0.165,-0.155
2763,-0.170,-0.155
2764,-0.180,-0.175
2765,-0.195,-0.180
2766,-0.210,-0.165
2767,-0.200,-0.145
2768,-0.175,-0.160
2769,-0.160,-0.190
2770,-0.175,-0.195
2771,-0.175,-0.215
2772,-0.180,-0.190
2773,-0.170,-0.180
2774,-0.165,-0.180
2775,-0.160,-0.180
2776,-0.175,-0.195
2777,-0.190,-0.195
2778,-0.195,-0.185
2779,-0.190,-0.175
2780,-0.220,-0.165
2781,-0.255,-0.170
2782,-0.300,-0.170
2783,-0.340,-0.165
2784,-0.335,-0.140
2785,-0.320,-0.125
2786,-0.315,-0.125
2787,-0.335,-0.140
2788,-0.345,-0.140
2789,-0.350,-0.150
2790,-0.350,-0.130
2791,-0.360,-0.110
2792,-0.365,-0.115
2793,-0.365,-0.110
2794,-0.365,-0.125
2795,-0.355,-0.140
2796,-0.370,-0.135
2797,-0.370,-0.115
2798,-0.365,-0.120
2799,-0.365,-0.140
2800,-0.375,-0.160
2801,-0.385,-0.155
2802,-0.385,-0.140
2803,-0.370,-0.135
2804,-0.380,-0.130
2805,-0.390,-0.150
2806,-0.405,-0.165
2807,-0.400,-0.160
2808,-0.405,-0.135
2809,-0.405,-0.140
2810,-0.385,-0.145
2811,-0.375,-0.165
2812,-0.385,-0.180
2813,-0.395,-0.185
2814,-0.415,-0.175
2815,-0.395,-0.175
2816,-0.375,-0.175
2817,-0.365,-0.165
2818,-0.370,-0.170
2819,-0.395,-0.175
2820,-0.390,-0.170
2821,-0.395,-0.160
2822,-0.380,-0.160
2823,-0.375,-0.155
2824,-0.370,-0.155
2825,-0.390,-0.145
2826,-0.405,-0.135
2827,-0.385,-0.115
2828,-0.370,-0.115
2829,-0.360,-0.120
2830,-0.360,-0.115
2831,-0.370,-0.115
2832,-0.375,-0.125
2833,-0.385,-0.110
2834,-0.365,-0.110
2835,-0.360,-0.105
2836,-0.360,-0.115
2837,-0.355,-0.120
2838,-0.355,-0.125
2839,-0.345,-0.125
2840,-0.345,-0.130
2841,-0.340,-0.140
2842,-0.340,-0.140
2843,-0.355,-0.140
2844,-0.370,-0.140
2845,-0.360,-0.135
2846,-0.355,-0.140
2847,-0.350,-0.120
2848,-0.335,-0.135
2849,-0.340,-0.140
2850,-0.335,-0.155
2851,-0.335,-0.145
2852,-0.340,-0.145
2853,-0.340,-0.140
2854,-0.365,-0.145
2855,-0.350,-0.175
2856,-0.335,-0.180
2857,-0.335,-0.170
2858,-0.325,-0.155
2859,-0.340,-0.155
2860,-0.355,-0.155
2861,-0.375,-0.165
2862,-0.375,-0.175
2863,-0.345,-0.170
2864,-0.325,-0.140
2865,-0.325,-0.140
2866,-0.340,-0.150
2867,-0.365,-0.145
2868,-0.370,-0.140
2869,-0.375,-0.125
2870,-0.355,-0.115
2871,-0.365,-0.100
2872,-0.370,-0.105
2873,-0.395,-0.130
2874,-0.385,-0.135
2875,-0.360,-0.110
2876,-0.345,-0.110
2877,-0.325,-0.100
2878,-0.315,-0.110
2879,-0.310,-0.125
2880,-0.305,-0.115
2881,-0.255,-0.115
2882,-0.210,-0.100
2883,-0.230,-0.105
2884,-0.290,-0.115
2885,-0.360,-0.150
2886,-0.405,-0.150
2887,-0.440,-0.145
2888,-0.455,-0.130
2889,-0.440,-0.140
2890,-0.420,-0.145
2891,-0.400,-0.145
2892,-0.385,-0.150
2893,-0.360,-0.125
2894,-0.330,-0.125
2895,-0.295,-0.135
2896,-0.300,-0.160
2897,-0.345,-0.170
2898,-0.400,-0.170
2899,-0.410,-0.165
2900,-0.380,-0.160
2901,-0.365,-0.165
2902,-0.370,-0.185
2903,-0.375,-0.175
2904,-0.380,-0.160
2905,-0.350,-0.140
2906,-0.340,-0.140
2907,-0.340,-0.140
2908,-0.330,-0.140
2909,-0.330,-0.140
2910,-0.330,-0.130
2911,-0.320,-0.110
2912,-0.320,-0.100
2913,-0.325,-0.115
2914,-0.340,-0.125
2915,-0.340,-0.125
2916,-0.315,-0.105
2917,-0.295,-0.095
2918,-0.250,-0.095
2919,-0.205,-0.095
2920,-0.175,-0.115
2921,-0.195,-0.115
2922,-0.215,-0.110
2923,-0.215,-0.120
2924,-0.215,-0.115
2925,-0.215,-0.140
2926,-0.220,-0.140
2927,-0.235,-0.145
2928,-0.250,-0.135
2929,-0.250,-0.135
2930,-0.250,-0.135
2931,-0.245,-0.145
2932,-0.250,-0.145
2933,-0.265,-0.150
2934,-0.285,-0.135
2935,-0.295,-0.150
2936,-0.305,-0.155
2937,-0.310,-0.165
2938,-0.345,-0.165
2939,-0.370,-0.175
2940,-0.375,-0.160
2941,-0.365,-0.170
2942,-0.355,-0.160
2943,-0.350,-0.160
2944,-0.350,-0.155
2945,-0.360,-0.165
2946,-0.380,-0.170
2947,-0.370,-0.170
2948,-0.360,-0.155
2949,-0.360,-0.140
2950,-0.365,-0.130
2951,-0.375,-0.145
2952,-0.390,-0.145
2953,-0.390,-0.135
2954,-0.365,-0.120
2955,-0.355,-0.105
2956,-0.360,-0.125
2957,-0.380,-0.140
2958,-0.380,-0.120
2959,-0.380,-0.110
2960,-0.385,-0.110
2961,-0.395,-0.115
2962,-0.410,-0.115
2963,-0.445,-0.135
2964,-0.440,-0.145
2965,-0.365,-0.135
2966,-0.175,-0.125
2967,0.080,-0.125
2968,0.350,-0.125
2969,0.655,-0.145
2970,0.975,-0.170
2971,1.210,-0.190
2972,1.220,-0.210
2973,0.995,-0.235
2974,0.670,-0.260
2975,0.335,-0.270
2976,0.045,-0.240
2977,-0.105,-0.185
2978,-0.125,-0.145
2979,-0.165,-0.140
2980,-0.220,-0.145
2981,-0.240,-0.175
2982,-0.270,-0.185
2983,-0.295,-0.175
2984,-0.330,-0.155
2985,-0.360,-0.145
2986,-0.385,-0.175
2987,-0.400,-0.180
2988,-0.405,-0.175
2989,-0.405,-0.170
2990,-0.410,-0.145
2991,-0.425,-0.155
2992,-0.450,-0.145
2993,-0.480,-0.160
2994,-0.485,-0.155
2995,-0.465,-0.135
2996,-0.450,-0.115
2997,-0.445,-0.125
2998,-0.435,-0.125
2999,-0.435,-0.135
3000,-0.445,-0.135
3001,-0.440,-0.125
3002,-0.440,-0.115
3003,-0.460,-0.105
3004,-0.465,-0.115
3005,-0.475,-0.125
3006,-0.475,-0.130
3007,-0.470,-0.145
3008,-0.450,-0.140
3009,-0.450,-0.120
3010,-0.450,-0.135
3011,-0.450,-0.155
3012,-0.450,-0.155
3013,-0.435,-0.140
3014,-0.430,-0.145
3015,-0.445,-0.130
3016,-0.455,-0.145
3017,-0.465,-0.150
3018,-0.475,-0.155
3019,-0.465,-0.145
3020,-0.455,-0.145
3021,-0.460,-0.125
3022,-0.455,-0.135
3023,-0.475,-0.155
3024,-0.475,-0.160
3025,-0.470,-0.175
3026,-0.450,-0.160
3027,-0.435,-0.155
3028,-0.440,-0.175
3029,-0.440,-0.175
3030,-0.455,-0.170
3031,-0.450,-0.170
3032,-0.440,-0.165
3033,-0.415,-0.175
3034,-0.430,-0.180
3035,-0.440,-0.175
3036,-0.445,-0.160
3037,-0.435,-0.165
3038,-0.425,-0.150
3039,-0.420,-0.140
3040,-0.415,-0.135
3041,-0.425,-0.135
3042,-0.425,-0.140
3043,-0.420,-0.135
3044,-0.410,-0.130
3045,-0.405,-0.120
3046,-0.405,-0.120
3047,-0.405,-0.130
3048,-0.405,-0.135
3049,-0.395,-0.125
3050,-0.380,-0.115
3051,-0.370,-0.110
3052,-0.360,-0.115
3053,-0.370,-0.135
3054,-0.370,-0.130
3055,-0.355,-0.130
3056,-0.330,-0.130
3057,-0.315,-0.135
3058,-0.320,-0.145
3059,-0.320,-0.140
3060,-0.325,-0.145
3061,-0.310,-0.135
3062,-0.295,-0.150
3063,-0.290,-0.145
3064,-0.285,-0.155
3065,-0.285,-0.150
3066,-0.290,-0.140
3067,-0.275,-0.135
3068,-0.255,-0.160
3069,-0.240,-0.155
3070,-0.220,-0.170
3071,-0.215,-0.185
3072,-0.215,-0.160
3073,-0.190,-0.170
3074,-0.175,-0.175
3075,-0.175,-0.180
3076,-0.195,-0.185
3077,-0.200,-0.190
3078,-0.195,-0.185
3079,-0.155,-0.170
3080,-0.130,-0.170
3081,-0.120,-0.160
3082,-0.110,-0.180
3083,-0.110,-0.165
3084,-0.110,-0.160
3085,-0.105,-0.140
3086,-0.125,-0.140
3087,-0.145,-0.140
3088,-0.160,-0.145
3089,-0.180,-0.140
3090,-0.185,-0.125
3091,-0.185,-0.120
3092,-0.175,-0.105
3093,-0.165,-0.130
3094,-0.170,-0.135
3095,-0.205,-0.135
3096,-0.245,-0.115
3097,-0.260,-0.115
3098,-0.270,-0.120
3099,-0.270,-0.130
3100,-0.280,-0.140
3101,-0.285,-0.135
3102,-0.300,-0.135
3103,-0.295,-0.125
3104,-0.300,-0.125
3105,-0.300,-0.130
3106,-0.315,-0.135
3107,-0.320,-0.150
3108,-0.330,-0.135
3109,-0.305,-0.115
3110,-0.300,-0.110
3111,-0.320,-0.130
3112,-0.320,-0.140
3113,-0.315,-0.160
3114,-0.330,-0.140
3115,-0.320,-0.130
3116,-0.310,-0.135
3117,-0.320,-0.160
3118,-0.330,-0.160
3119,-0.340,-0.175
3120,-0.335,-0.165
3121,-0.330,-0.150
3122,-0.315,-0.140
3123,-0.310,-0.155
3124,-0.310,-0.165
3125,-0.330,-0.160
3126,-0.335,-0.145
3127,-0.325,-0.120
3128,-0.320,-0.120
3129,-0.305,-0.125
3130,-0.330,-0.125
3131,-0.330,-0.120
3132,-0.330,-0.105
3133,-0.315,-0.095
3134,-0.295,-0.085
3135,-0.290,-0.105
3136,-0.300,-0.115
3137,-0.300,-0.125
3138,-0.325,-0.100
3139,-0.300,-0.090
3140,-0.295,-0.095
3141,-0.285,-0.100
3142,-0.300,-0.120
3143,-0.305,-0.125
3144,-0.295,-0.110
3145,-0.295,-0.105
3146,-0.280,-0.110
3147,-0.265,-0.115
3148,-0.275,-0.130
3149,-0.300,-0.130
3150,-0.305,-0.115
3151,-0.315,-0.110
3152,-0.315,-0.095
3153,-0.300,-0.120
3154,-0.310,-0.135
3155,-0.305,-0.145
3156,-0.290,-0.140
3157,-0.280,-0.120
3158,-0.265,-0.120
3159,-0.295,-0.130
3160,-0.285,-0.160
3161,-0.310,-0.170
3162,-0.290,-0.170
3163,-0.275,-0.145
3164,-0.270,-0.130
3165,-0.275,-0.145
3166,-0.270,-0.150
3167,-0.280,-0.165
3168,-0.310,-0.160
3169,-0.300,-0.145
3170,-0.290,-0.125
3171,-0.295,-0.130
3172,-0.280,-0.140
3173,-0.290,-0.145
3174,-0.295,-0.140
3175,-0.280,-0.105
3176,-0.265,-0.085
3177,-0.270,-0.090
3178,-0.295,-0.100
3179,-0.305,-0.110
3180,-0.310,-0.115
3181,-0.305,-0.100
3182,-0.280,-0.080
3183,-0.285,-0.080
3184,-0.290,-0.100
3185,-0.295,-0.110
3186,-0.300,-0.115
3187,-0.295,-0.080
3188,-0.290,-0.095
3189,-0.280,-0.105
3190,-0.270,-0.120
3191,-0.280,-0.125
3192,-0.285,-0.130
3193,-0.280,-0.120
3194,-0.270,-0.105
3195,-0.285,-0.110
3196,-0.295,-0.115
3197,-0.295,-0.125
3198,-0.300,-0.140
3199,-0.295,-0.115
3200,-0.285,-0.100
3201,-0.280,-0.110
3202,-0.285,-0.130
3203,-0.290,-0.150
3204,-0.290,-0.160
3205,-0.275,-0.150
3206,-0.275,-0.130
3207,-0.270,-0.130
3208,-0.295,-0.140
3209,-0.320,-0.165
3210,-0.330,-0.150
3211,-0.315,-0.145
3212,-0.310,-0.125
3213,-0.300,-0.130
3214,-0.305,-0.140
3215,-0.305,-0.155
3216,-0.305,-0.155
3217,-0.300,-0.130
3218,-0.280,-0.105
3219,-0.280,-0.100
3220,-0.290,-0.105
3221,-0.295,-0.115
3222,-0.310,-0.115
3223,-0.290,-0.100
3224,-0.290,-0.085
3225,-0.275,-0.085
3226,-0.270,-0.090
3227,-0.275,-0.105
3228,-0.285,-0.115
3229,-0.280,-0.090
3230,-0.270,-0.085
3231,-0.265,-0.085
3232,-0.270,-0.100
3233,-0.280,-0.125
3234,-0.275,-0.120
3235,-0.250,-0.110
3236,-0.245,-0.090
3237,-0.260,-0.105
3238,-0.265,-0.110
3239,-0.265,-0.120
3240,-0.250,-0.135
3241,-0.210,-0.120
3242,-0.175,-0.105
3243,-0.145,-0.095
3244,-0.120,-0.105
3245,-0.105,-0.115
3246,-0.115,-0.125
3247,-0.115,-0.125
3248,-0.130,-0.115
3249,-0.120,-0.120
3250,-0.135,-0.150
3251,-0.135,-0.150
3252,-0.165,-0.160
3253,-0.165,-0.150
3254,-0.180,-0.135
3255,-0.185,-0.140
3256,-0.205,-0.140
3257,-0.195,-0.150
3258,-0.210,-0.160
3259,-0.205,-0.160
3260,-0.210,-0.135
3261,-0.225,-0.125
3262,-0.240,-0.130
3263,-0.270,-0.125
3264,-0.290,-0.130
3265,-0.300,-0.120
3266,-0.305,-0.110
3267,-0.305,-0.105
3268,-0.320,-0.095
3269,-0.325,-0.090
3270,-0.335,-0.110
3271,-0.315,-0.100
3272,-0.310,-0.100
3273,-0.315,-0.100
3274,-0.320,-0.090
3275,-0.320,-0.095
3276,-0.340,-0.105
3277,-0.315,-0.100
3278,-0.310,-0.105
3279,-0.310,-0.110
3280,-0.325,-0.115
3281,-0.325,-0.125
3282,-0.335,-0.110
3283,-0.325,-0.125
3284,-0.300,-0.115
3285,-0.300,-0.125
3286,-0.315,-0.115
3287,-0.335,-0.115
3288,-0.335,-0.125
3289,-0.340,-0.115
3290,-0.355,-0.115
3291,-0.380,-0.110
3292,-0.385,-0.110
3293,-0.370,-0.120
3294,-0.300,-0.135
3295,-0.130,-0.130
3296,0.070,-0.120
3297,0.290,-0.130
3298,0.545,-0.150
3299,0.830,-0.160
3300,1.060,-0.180
3301,1.145,-0.220
3302,1.015,-0.255
3303,0.735,-0.285
3304,0.425,-0.275
3305,0.165,-0.260
3306,-0.040,-0.220
3307,-0.145,-0.155
3308,-0.155,-0.125
3309,-0.170,-0.125
3310,-0.185,-0.120
3311,-0.210,-0.120
3312,-0.245,-0.105
3313,-0.280,-0.095
3314,-0.290,-0.085
3315,-0.315,-0.105
3316,-0.345,-0.100
3317,-0.370,-0.110
3318,-0.395,-0.105
3319,-0.435,-0.085
3320,-0.430,-0.080
3321,-0.430,-0.090
3322,-0.420,-0.100
3323,-0.420,-0.100
3324,-0.445,-0.105
3325,-0.440,-0.090
3326,-0.435,-0.100
3327,-0.425,-0.120
3328,-0.430,-0.130
3329,-0.440,-0.140
3330,-0.440,-0.130
3331,-0.430,-0.110
3332,-0.430,-0.090
3333,-0.435,-0.115
3334,-0.440,-0.130
3335,-0.455,-0.135
3336,-0.455,-0.125
3337,-0.445,-0.105
3338,-0.435,-0.110
3339,-0.425,-0.115
3340,-0.420,-0.130
3341,-0.420,-0.145
3342,-0.430,-0.140
3343,-0.440,-0.125
3344,-0.415,-0.110
3345,-0.415,-0.130
3346,-0.430,-0.135
3347,-0.435,-0.145
3348,-0.440,-0.140
3349,-0.435,-0.135
3350,-0.430,-0.125
3351,-0.415,-0.135
3352,-0.420,-0.145
3353,-0.420,-0.155
3354,-0.430,-0.155
3355,-0.420,-0.130
3356,-0.410,-0.105
3357,-0.405,-0.095
3358,-0.410,-0.105
3359,-0.410,-0.115
3360,-0.425,-0.120
3361,-0.410,-0.105
3362,-0.390,-0.070
3363,-0.380,-0.080
3364,-0.385,-0.090
3365,-0.405,-0.115
3366,-0.415,-0.105
3367,-0.415,-0.095
3368,-0.410,-0.075
3369,-0.405,-0.080
3370,-0.400,-0.090
3371,-0.410,-0.110
3372,-0.420,-0.125
3373,-0.410,-0.115
3374,-0.410,-0.100
3375,-0.395,-0.105
3376,-0.395,-0.115
3377,-0.405,-0.125
3378,-0.400,-0.130
3379,-0.390,-0.120
3380,-0.380,-0.110
3381,-0.375,-0.115
3382,-0.375,-0.115
3383,-0.380,-0.115
3384,-0.375,-0.125
3385,-0.370,-0.125
3386,-0.365,-0.120
3387,-0.355,-0.135
3388,-0.350,-0.140
3389,-0.350,-0.145
3390,-0.355,-0.160
3391,-0.350,-0.155
3392,-0.335,-0.155
3393,-0.315,-0.140
3394,-0.305,-0.145
3395,-0.300,-0.150
3396,-0.300,-0.155
3397,-0.280,-0.150
3398,-0.265,-0.150
3399,-0.255,-0.150
3400,-0.265,-0.145
3401,-0.260,-0.140
3402,-0.265,-0.135
3403,-0.270,-0.135
3404,-0.245,-0.115
3405,-0.225,-0.125
3406,-0.235,-0.125
3407,-0.215,-0.115
3408,-0.215,-0.105
3409,-0.205,-0.110
3410,-0.190,-0.105
3411,-0.175,-0.110
3412,-0.175,-0.110
3413,-0.180,-0.120
3414,-0.175,-0.105
3415,-0.170,-0.110
3416,-0.150,-0.115
3417,-0.140,-0.120
3418,-0.145,-0.125
3419,-0.150,-0.140
3420,-0.160,-0.135
3421,-0.150,-0.125
3422,-0.170,-0.125
3423,-0.170,-0.145
3424,-0.175,-0.145
3425,-0.210,-0.145
3426,-0.240,-0.125
3427,-0.250,-0.115
3428,-0.250,-0.110
3429,-0.240,-0.115
3430,-0.245,-0.130
3431,-0.250,-0.130
3432,-0.275,-0.130
3433,-0.260,-0.120
3434,-0.275,-0.125
3435,-0.290,-0.135
3436,-0.305,-0.150
3437,-0.315,-0.145
3438,-0.330,-0.150
3439,-0.320,-0.125
3440,-0.330,-0.120
3441,-0.325,-0.145
3442,-0.305,-0.160
3443,-0.315,-0.155
3444,-0.325,-0.150
3445,-0.325,-0.135
3446,-0.325,-0.125
3447,-0.330,-0.130
3448,-0.320,-0.130
3449,-0.340,-0.140
3450,-0.365,-0.135
3451,-0.350,-0.110
3452,-0.355,-0.080
3453,-0.355,-0.085
3454,-0.350,-0.095
3455,-0.355,-0.110
3456,-0.360,-0.115
3457,-0.355,-0.095
3458,-0.325,-0.070
3459,-0.305,-0.080
3460,-0.320,-0.090
3461,-0.325,-0.095
3462,-0.340,-0.090
3463,-0.340,-0.100
3464,-0.335,-0.080
3465,-0.320,-0.075
3466,-0.330,-0.085
3467,-0.345,-0.105
3468,-0.345,-0.110
3469,-0.330,-0.110
3470,-0.310,-0.100
3471,-0.315,-0.090
3472,-0.325,-0.105
3473,-0.335,-0.100
3474,-0.345,-0.115
3475,-0.335,-0.100
3476,-0.320,-0.100
3477,-0.325,-0.100
3478,-0.335,-0.100
3479,-0.345,-0.125
3480,-0.350,-0.120
3481,-0.335,-0.130
3482,-0.335,-0.120
3483,-0.315,-0.130
3484,-0.320,-0.115
3485,-0.315,-0.130
3486,-0.325,-0.145
3487,-0.310,-0.135
3488,-0.310,-0.125
3489,-0.305,-0.140
3490,-0.305,-0.135
3491,-0.310,-0.135
3492,-0.330,-0.130
3493,-0.325,-0.125
3494,-0.315,-0.115
3495,-0.295,-0.120
3496,-0.295,-0.110
3497,-0.300,-0.105
3498,-0.310,-0.110
3499,-0.295,-0.100
3500,-0.290,-0.080
3501,-0.290,-0.080
3502,-0.315,-0.085
3503,-0.315,-0.085
3504,-0.310,-0.090
3505,-0.280,-0.090
3506,-0.280,-0.075
3507,-0.280,-0.080
3508,-0.305,-0.080
3509,-0.310,-0.080
3510,-0.325,-0.075
3511,-0.335,-0.095
3512,-0.335,-0.090
3513,-0.315,-0.100
3514,-0.320,-0.100
3515,-0.315,-0.115
3516,-0.320,-0.105
3517,-0.295,-0.105
3518,-0.285,-0.095
3519,-0.285,-0.115
3520,-0.290,-0.105
3521,-0.305,-0.105
3522,-0.310,-0.120
3523,-0.310,-0.100
3524,-0.295,-0.110
3525,-0.305,-0.125
3526,-0.310,-0.125
3527,-0.320,-0.125
3528,-0.320,-0.135
3529,-0.325,-0.125
3530,-0.320,-0.135
3531,-0.325,-0.135
3532,-0.315,-0.150
3533,-0.310,-0.145
3534,-0.310,-0.145
3535,-0.330,-0.135
3536,-0.315,-0.125
3537,-0.330,-0.135
3538,-0.315,-0.130
3539,-0.330,-0.130
3540,-0.325,-0.115
3541,-0.320,-0.120
3542,-0.305,-0.100
3543,-0.315,-0.105
3544,-0.315,-0.100
3545,-0.315,-0.090
3546,-0.335,-0.100
3547,-0.325,-0.090
3548,-0.325,-0.085
3549,-0.320,-0.090
3550,-0.310,-0.090
3551,-0.315,-0.080
3552,-0.320,-0.090
3553,-0.320,-0.085
3554,-0.310,-0.090
3555,-0.300,-0.100
3556,-0.295,-0.105
3557,-0.320,-0.100
3558,-0.335,-0.105
3559,-0.305,-0.100
3560,-0.275,-0.100
3561,-0.270,-0.105
3562,-0.270,-0.115
3563,-0.280,-0.110
3564,-0.305,-0.095
3565,-0.305,-0.090
3566,-0.275,-0.095
3567,-0.275,-0.100
3568,-0.275,-0.095
3569,-0.285,-0.110
3570,-0.290,-0.120
3571,-0.270,-0.120
3572,-0.215,-0.130
3573,-0.200,-0.140
3574,-0.185,-0.130
3575,-0.155,-0.120
3576,-0.135,-0.120
3577,-0.145,-0.130
3578,-0.175,-0.125
3579,-0.195,-0.140
3580,-0.215,-0.140
3581,-0.230,-0.145
3582,-0.245,-0.135
3583,-0.240,-0.130
3584,-0.240,-0.125
3585,-0.230,-0.125
3586,-0.230,-0.120
3587,-0.240,-0.115
3588,-0.255,-0.095
3589,-0.255,-0.095
3590,-0.270,-0.095
3591,-0.280,-0.095
3592,-0.285,-0.095
3593,-0.300,-0.090
3594,-0.315,-0.095
3595,-0.340,-0.085
3596,-0.340,-0.085
3597,-0.340,-0.095
3598,-0.330,-0.105
3599,-0.340,-0.100
