0,-0.200,0.005
1,-0.200,0.005
2,-0.200,0.005
3,-0.200,0.005
4,-0.200,0.005
5,-0.200,0.005
6,-0.200,0.005
7,-0.200,0.005
8,-0.190,0.005
9,-0.175,0.005
10,-0.190,0.005
11,-0.205,-0.005
12,-0.210,-0.005
13,-0.200,0.010
14,-0.195,-0.010
15,-0.210,-0.010
16,-0.230,-0.020
17,-0.235,-0.035
18,-0.245,-0.025
19,-0.235,-0.010
20,-0.230,-0.030
21,-0.230,-0.040
22,-0.245,-0.050
23,-0.270,-0.060
24,-0.260,-0.045
25,-0.240,-0.035
26,-0.225,-0.055
27,-0.220,-0.065
28,-0.225,-0.075
29,-0.225,-0.095
30,-0.225,-0.085
31,-0.225,-0.075
32,-0.220,-0.085
33,-0.235,-0.090
34,-0.260,-0.100
35,-0.260,-0.120
36,-0.260,-0.105
37,-0.260,-0.100
38,-0.255,-0.105
39,-0.255,-0.125
40,-0.260,-0.135
41,-0.260,-0.145
42,-0.265,-0.130
43,-0.250,-0.110
44,-0.240,-0.130
45,-0.255,-0.140
46,-0.265,-0.150
47,-0.280,-0.150
48,-0.260,-0.155
49,-0.255,-0.140
50,-0.250,-0.150
51,-0.245,-0.150
52,-0.250,-0.175
53,-0.255,-0.170
54,-0.245,-0.155
55,-0.240,-0.155
56,-0.250,-0.155
57,-0.245,-0.170
58,-0.265,-0.180
59,-0.270,-0.175
60,-0.250,-0.165
61,-0.250,-0.150
62,-0.245,-0.160
63,-0.250,-0.160
64,-0.255,-0.150
65,-0.255,-0.150
66,-0.240,-0.140
67,-0.245,-0.125
68,-0.265,-0.125
69,-0.260,-0.130
70,-0.270,-0.125
71,-0.280,-0.135
72,-0.280,-0.125
73,-0.265,-0.115
74,-0.265,-0.125
75,-0.260,-0.135
76,-0.265,-0.135
77,-0.255,-0.140
78,-0.245,-0.135
79,-0.230,-0.130
80,-0.230,-0.145
81,-0.235,-0.155
82,-0.230,-0.165
83,-0.235,-0.185
84,-0.215,-0.195
85,-0.190,-0.180
86,-0.175,-0.190
87,-0.175,-0.200
88,-0.195,-0.210
89,-0.225,-0.220
90,-0.225,-0.205
91,-0.225,-0.215
92,-0.230,-0.225
93,-0.215,-0.235
94,-0.225,-0.255
95,-0.225,-0.250
96,-0.205,-0.245
97,-0.165,-0.225
98,-0.135,-0.230
99,-0.135,-0.220
100,-0.145,-0.220
101,-0.165,-0.230
102,-0.170,-0.210
103,-0.170,-0.205
104,-0.185,-0.215
105,-0.205,-0.195
106,-0.225,-0.160
107,-0.230,-0.080
108,-0.195,0.145
109,-0.155,0.530
110,-0.120,0.805
111,-0.070,0.735
112,-0.005,0.485
113,0.215,0.285
114,0.575,0.240
115,0.845,0.220
116,0.800,0.155
117,0.525,0.100
118,0.275,0.035
119,0.180,-0.065
120,0.195,-0.155
121,0.230,-0.270
122,0.255,-0.415
123,0.280,-0.595
124,0.285,-0.765
125,0.300,-0.945
126,0.320,-1.060
127,0.340,-1.155
128,0.355,-1.240
129,0.345,-1.345
130,0.330,-1.455
131,0.320,-1.605
132,0.340,-1.755
133,0.380,-1.930
134,0.400,-2.100
135,0.410,-2.235
136,0.395,-2.360
137,0.365,-2.490
138,0.335,-2.595
139,0.310,-2.700
140,0.260,-2.790
141,0.195,-2.860
142,0.125,-2.930
143,0.050,-3.005
144,-0.035,-3.045
145,-0.130,-3.065
146,-0.250,-3.095
147,-0.355,-3.130
148,-0.420,-3.155
149,-0.435,-3.155
150,-0.395,-3.145
151,-0.380,-3.095
152,-0.390,-3.030
153,-0.405,-2.955
154,-0.440,-2.825
155,-0.465,-2.690
156,-0.470,-2.525
157,-0.460,-2.345
158,-0.435,-2.150
159,-0.420,-1.940
160,-0.405,-1.710
161,-0.380,-1.475
162,-0.340,-1.240
163,-0.310,-0.995
164,-0.295,-0.800
165,-0.305,-0.610
166,-0.310,-0.445
167,-0.320,-0.280
168,-0.320,-0.085
169,-0.310,0.065
170,-0.310,0.220
171,-0.305,0.350
172,-0.290,0.460
173,-0.290,0.555
174,-0.265,0.635
175,-0.260,0.690
176,-0.240,0.740
177,-0.245,0.775
178,-0.240,0.825
179,-0.235,0.850
180,-0.215,0.905
181,-0.200,0.945
182,-0.195,0.970
183,-0.205,1.005
184,-0.215,1.045
185,-0.200,1.070
186,-0.200,1.125
187,-0.190,1.170
188,-0.190,1.195
189,-0.190,1.235
190,-0.185,1.250
191,-0.195,1.305
192,-0.185,1.355
193,-0.175,1.400
194,-0.165,1.435
195,-0.170,1.465
196,-0.170,1.505
197,-0.160,1.550
198,-0.150,1.605
199,-0.140,1.650
200,-0.135,1.680
201,-0.135,1.710
202,-0.150,1.730
203,-0.150,1.780
204,-0.140,1.830
205,-0.130,1.865
206,-0.120,1.890
207,-0.120,1.900
208,-0.115,1.920
209,-0.115,1.930
210,-0.100,1.950
211,-0.090,1.975
212,-0.085,1.955
213,-0.080,1.960
214,-0.090,1.955
215,-0.090,1.940
216,-0.080,1.945
217,-0.060,1.925
218,-0.060,1.895
219,-0.050,1.855
220,-0.045,1.820
221,-0.070,1.780
222,-0.055,1.760
223,-0.055,1.715
224,-0.040,1.655
225,-0.040,1.605
226,-0.045,1.535
227,-0.050,1.470
228,-0.050,1.430
229,-0.050,1.360
230,-0.050,1.300
231,-0.050,1.235
232,-0.050,1.155
233,-0.065,1.085
234,-0.065,1.030
235,-0.065,0.980
236,-0.070,0.910
237,-0.070,0.835
238,-0.090,0.760
239,-0.105,0.715
240,-0.105,0.655
241,-0.105,0.615
242,-0.110,0.555
243,-0.110,0.495
244,-0.140,0.445
245,-0.150,0.400
246,-0.150,0.365
247,-0.155,0.325
248,-0.150,0.275
249,-0.155,0.235
250,-0.185,0.185
251,-0.185,0.160
252,-0.180,0.150
253,-0.185,0.135
254,-0.175,0.100
255,-0.190,0.075
256,-0.205,0.045
257,-0.225,0.020
258,-0.220,0.030
259,-0.205,0.020
260,-0.200,0.000
261,-0.215,-0.015
262,-0.225,-0.020
263,-0.225,-0.035
264,-0.230,-0.035
265,-0.230,-0.040
266,-0.225,-0.050
267,-0.225,-0.070
268,-0.230,-0.070
269,-0.240,-0.065
270,-0.245,-0.070
271,-0.230,-0.055
272,-0.235,-0.070
273,-0.230,-0.075
274,-0.245,-0.080
275,-0.250,-0.085
276,-0.230,-0.070
277,-0.235,-0.065
278,-0.230,-0.070
279,-0.235,-0.070
280,-0.250,-0.080
281,-0.245,-0.085
282,-0.245,-0.075
283,-0.235,-0.055
284,-0.240,-0.060
285,-0.230,-0.060
286,-0.235,-0.065
287,-0.245,-0.070
288,-0.235,-0.060
289,-0.230,-0.040
290,-0.225,-0.035
291,-0.220,-0.040
292,-0.220,-0.040
293,-0.235,-0.040
294,-0.230,-0.040
295,-0.220,-0.020
296,-0.205,-0.020
297,-0.225,-0.040
298,-0.230,-0.030
299,-0.230,-0.035
300,-0.230,-0.015
301,-0.215,-0.020
302,-0.215,-0.020
303,-0.220,-0.030
304,-0.235,-0.025
305,-0.240,-0.030
306,-0.235,-0.035
307,-0.230,-0.015
308,-0.225,-0.020
309,-0.230,-0.035
310,-0.250,-0.045
311,-0.255,-0.045
312,-0.245,-0.035
313,-0.240,-0.040
314,-0.240,-0.045
315,-0.240,-0.045
316,-0.255,-0.060
317,-0.255,-0.080
318,-0.260,-0.065
319,-0.245,-0.060
320,-0.245,-0.065
321,-0.250,-0.090
322,-0.265,-0.095
323,-0.275,-0.100
324,-0.270,-0.095
325,-0.250,-0.100
326,-0.255,-0.105
327,-0.270,-0.115
328,-0.275,-0.135
329,-0.285,-0.140
330,-0.285,-0.135
331,-0.265,-0.120
332,-0.275,-0.135
333,-0.275,-0.145
334,-0.280,-0.155
335,-0.290,-0.150
336,-0.275,-0.150
337,-0.275,-0.150
338,-0.265,-0.155
339,-0.275,-0.160
340,-0.290,-0.170
341,-0.305,-0.180
342,-0.300,-0.170
343,-0.290,-0.165
344,-0.285,-0.180
345,-0.285,-0.185
346,-0.295,-0.190
347,-0.305,-0.185
348,-0.290,-0.185
349,-0.295,-0.185
350,-0.275,-0.195
351,-0.275,-0.190
352,-0.305,-0.205
353,-0.295,-0.210
354,-0.300,-0.205
355,-0.285,-0.200
356,-0.280,-0.210
357,-0.290,-0.215
358,-0.305,-0.220
359,-0.300,-0.225
360,-0.305,-0.215
361,-0.290,-0.205
362,-0.295,-0.220
363,-0.290,-0.215
364,-0.305,-0.235
365,-0.310,-0.230
366,-0.310,-0.220
367,-0.290,-0.215
368,-0.290,-0.215
369,-0.300,-0.220
370,-0.295,-0.225
371,-0.305,-0.225
372,-0.300,-0.220
373,-0.295,-0.215
374,-0.290,-0.220
375,-0.290,-0.215
376,-0.295,-0.245
377,-0.300,-0.235
378,-0.285,-0.230
379,-0.280,-0.215
380,-0.285,-0.230
381,-0.275,-0.230
382,-0.305,-0.245
383,-0.295,-0.235
384,-0.290,-0.230
385,-0.285,-0.210
386,-0.280,-0.215
387,-0.285,-0.230
388,-0.300,-0.230
389,-0.305,-0.240
390,-0.305,-0.220
391,-0.290,-0.205
392,-0.290,-0.205
393,-0.280,-0.215
394,-0.285,-0.210
395,-0.285,-0.205
396,-0.275,-0.170
397,-0.270,-0.140
398,-0.260,-0.135
399,-0.260,-0.150
400,-0.255,-0.130
401,-0.255,-0.065
402,-0.230,0.125
403,-0.190,0.490
404,-0.155,0.790
405,-0.100,0.745
406,0.010,0.495
407,0.240,0.320
408,0.630,0.245
409,0.915,0.210
410,0.885,0.140
411,0.595,0.075
412,0.320,-0.010
413,0.200,-0.110
414,0.190,-0.210
415,0.210,-0.350
416,0.205,-0.515
417,0.210,-0.695
418,0.195,-0.885
419,0.190,-1.105
420,0.200,-1.270
421,0.225,-1.405
422,0.230,-1.530
423,0.220,-1.660
424,0.205,-1.815
425,0.185,-2.015
426,0.195,-2.225
427,0.180,-2.420
428,0.175,-2.570
429,0.155,-2.710
430,0.115,-2.830
431,0.070,-2.935
432,0.045,-3.025
433,0.000,-3.085
434,-0.040,-3.125
435,-0.105,-3.170
436,-0.155,-3.205
437,-0.215,-3.220
438,-0.280,-3.240
439,-0.350,-3.220
440,-0.405,-3.230
441,-0.450,-3.245
442,-0.440,-3.240
443,-0.390,-3.210
444,-0.330,-3.170
445,-0.285,-3.095
446,-0.280,-2.990
447,-0.305,-2.875
448,-0.325,-2.755
449,-0.365,-2.590
450,-0.360,-2.390
451,-0.350,-2.175
452,-0.335,-1.940
453,-0.310,-1.720
454,-0.290,-1.480
455,-0.290,-1.200
456,-0.290,-0.960
457,-0.310,-0.745
458,-0.320,-0.540
459,-0.335,-0.340
460,-0.340,-0.140
461,-0.345,0.030
462,-0.355,0.190
463,-0.335,0.355
464,-0.335,0.460
465,-0.335,0.550
466,-0.340,0.635
467,-0.345,0.675
468,-0.330,0.745
469,-0.320,0.795
470,-0.305,0.840
471,-0.300,0.885
472,-0.300,0.920
473,-0.300,0.960
474,-0.290,1.010
475,-0.285,1.050
476,-0.285,1.085
477,-0.280,1.110
478,-0.290,1.140
479,-0.280,1.185
480,-0.285,1.230
481,-0.265,1.275
482,-0.265,1.300
483,-0.270,1.320
484,-0.265,1.350
485,-0.270,1.400
486,-0.265,1.435
487,-0.250,1.490
488,-0.245,1.515
489,-0.245,1.550
490,-0.245,1.570
491,-0.250,1.625
492,-0.250,1.665
493,-0.225,1.700
494,-0.225,1.735
495,-0.230,1.760
496,-0.235,1.785
497,-0.245,1.830
498,-0.215,1.860
499,-0.210,1.900
500,-0.195,1.920
501,-0.200,1.925
502,-0.200,1.935
503,-0.205,1.960
504,-0.195,1.965
505,-0.170,1.985
506,-0.160,1.980
507,-0.165,1.960
508,-0.160,1.935
509,-0.165,1.925
510,-0.145,1.915
511,-0.135,1.895
512,-0.135,1.860
513,-0.135,1.810
514,-0.130,1.760
515,-0.135,1.725
516,-0.125,1.675
517,-0.120,1.630
518,-0.110,1.555
519,-0.125,1.490
520,-0.125,1.420
521,-0.135,1.350
522,-0.130,1.300
523,-0.125,1.235
524,-0.120,1.160
525,-0.125,1.065
526,-0.130,1.000
527,-0.140,0.930
528,-0.135,0.875
529,-0.135,0.830
530,-0.130,0.760
531,-0.135,0.690
532,-0.150,0.635
533,-0.160,0.575
534,-0.160,0.540
535,-0.145,0.495
536,-0.150,0.445
537,-0.155,0.400
538,-0.175,0.340
539,-0.190,0.295
540,-0.185,0.280
541,-0.185,0.245
542,-0.185,0.205
543,-0.190,0.170
544,-0.205,0.140
545,-0.205,0.115
546,-0.205,0.110
547,-0.200,0.095
548,-0.205,0.065
549,-0.210,0.045
550,-0.230,0.030
551,-0.220,0.025
552,-0.225,0.015
553,-0.215,0.020
554,-0.220,0.005
555,-0.220,-0.020
556,-0.230,-0.035
557,-0.225,-0.035
558,-0.220,-0.040
559,-0.225,-0.020
560,-0.230,-0.040
561,-0.230,-0.045
562,-0.235,-0.050
563,-0.240,-0.055
564,-0.225,-0.045
565,-0.225,-0.025
566,-0.225,-0.035
567,-0.220,-0.040
568,-0.225,-0.050
569,-0.235,-0.055
570,-0.225,-0.035
571,-0.220,-0.030
572,-0.210,-0.025
573,-0.215,-0.035
574,-0.230,-0.035
575,-0.235,-0.035
576,-0.225,-0.030
577,-0.210,-0.015
578,-0.210,-0.020
579,-0.220,-0.015
580,-0.220,-0.030
581,-0.230,-0.025
582,-0.225,-0.005
583,-0.215,0.005
584,-0.220,0.000
585,-0.215,-0.010
586,-0.230,-0.015
587,-0.230,-0.030
588,-0.220,-0.025
589,-0.210,-0.005
590,-0.215,0.005
591,-0.215,-0.020
592,-0.225,-0.035
593,-0.225,-0.035
594,-0.225,-0.030
595,-0.215,-0.025
596,-0.220,-0.030
597,-0.235,-0.040
598,-0.240,-0.055
599,-0.235,-0.060
600,-0.240,-0.050
601,-0.230,-0.045
602,-0.225,-0.050
603,-0.230,-0.070
604,-0.240,-0.085
605,-0.245,-0.085
606,-0.245,-0.085
607,-0.240,-0.075
608,-0.230,-0.095
609,-0.240,-0.110
610,-0.245,-0.125
611,-0.250,-0.115
612,-0.250,-0.115
613,-0.245,-0.115
614,-0.240,-0.130
615,-0.240,-0.145
616,-0.255,-0.150
617,-0.270,-0.145
618,-0.255,-0.150
619,-0.255,-0.135
620,-0.245,-0.155
621,-0.255,-0.165
622,-0.260,-0.175
623,-0.270,-0.180
624,-0.265,-0.175
625,-0.265,-0.165
626,-0.265,-0.170
627,-0.255,-0.190
628,-0.265,-0.185
629,-0.270,-0.195
630,-0.275,-0.190
631,-0.260,-0.185
632,-0.260,-0.180
633,-0.265,-0.200
634,-0.270,-0.215
635,-0.270,-0.215
636,-0.275,-0.205
637,-0.260,-0.210
638,-0.255,-0.215
639,-0.265,-0.215
640,-0.280,-0.230
641,-0.290,-0.215
642,-0.285,-0.215
643,-0.270,-0.210
644,-0.265,-0.205
645,-0.270,-0.220
646,-0.280,-0.230
647,-0.290,-0.235
648,-0.290,-0.215
649,-0.275,-0.215
650,-0.265,-0.225
651,-0.270,-0.230
652,-0.290,-0.235
653,-0.280,-0.235
654,-0.275,-0.235
655,-0.260,-0.230
656,-0.260,-0.220
657,-0.270,-0.240
658,-0.285,-0.240
659,-0.285,-0.245
660,-0.270,-0.245
661,-0.265,-0.230
662,-0.270,-0.230
663,-0.265,-0.240
664,-0.285,-0.250
665,-0.285,-0.245
666,-0.280,-0.235
667,-0.265,-0.225
668,-0.265,-0.235
669,-0.270,-0.245
670,-0.270,-0.260
671,-0.270,-0.260
672,-0.265,-0.235
673,-0.265,-0.240
674,-0.265,-0.240
675,-0.270,-0.255
676,-0.270,-0.255
677,-0.280,-0.245
678,-0.280,-0.245
679,-0.260,-0.230
680,-0.255,-0.230
681,-0.255,-0.235
682,-0.260,-0.255
683,-0.265,-0.235
684,-0.255,-0.225
685,-0.245,-0.205
686,-0.235,-0.205
687,-0.240,-0.185
688,-0.230,-0.125
689,-0.235,0.065
690,-0.195,0.445
691,-0.150,0.835
692,-0.120,0.890
693,-0.035,0.635
694,0.170,0.350
695,0.515,0.220
696,0.870,0.175
697,0.870,0.120
698,0.570,0.035
699,0.275,-0.050
700,0.155,-0.160
701,0.150,-0.300
702,0.175,-0.435
703,0.180,-0.610
704,0.175,-0.790
705,0.160,-1.015
706,0.160,-1.225
707,0.160,-1.380
708,0.170,-1.520
709,0.165,-1.625
710,0.155,-1.785
711,0.135,-1.980
712,0.115,-2.200
713,0.115,-2.400
714,0.120,-2.560
715,0.110,-2.670
716,0.090,-2.770
717,0.040,-2.885
718,0.000,-3.005
719,-0.060,-3.090
720,-0.110,-3.115
721,-0.160,-3.150
722,-0.205,-3.185
723,-0.270,-3.215
724,-0.335,-3.245
725,-0.425,-3.250
726,-0.505,-3.240
727,-0.530,-3.245
728,-0.520,-3.255
729,-0.480,-3.250
730,-0.445,-3.245
731,-0.405,-3.220
732,-0.375,-3.160
733,-0.345,-3.080
734,-0.335,-2.985
735,-0.340,-2.870
736,-0.330,-2.740
737,-0.320,-2.545
738,-0.295,-2.350
739,-0.270,-2.090
740,-0.255,-1.815
741,-0.225,-1.540
742,-0.220,-1.275
743,-0.225,-1.000
744,-0.255,-0.765
745,-0.270,-0.530
746,-0.290,-0.315
747,-0.305,-0.125
748,-0.310,0.055
749,-0.325,0.250
750,-0.320,0.400
751,-0.310,0.525
752,-0.290,0.610
753,-0.295,0.655
754,-0.305,0.700
755,-0.315,0.750
756,-0.305,0.800
757,-0.305,0.840
758,-0.300,0.880
759,-0.300,0.905
760,-0.305,0.920
761,-0.315,0.960
762,-0.305,0.995
763,-0.295,1.030
764,-0.295,1.045
765,-0.310,1.080
766,-0.315,1.090
767,-0.315,1.135
768,-0.320,1.170
769,-0.305,1.195
770,-0.300,1.215
771,-0.315,1.265
772,-0.310,1.270
773,-0.315,1.325
774,-0.305,1.355
775,-0.295,1.400
776,-0.290,1.430
777,-0.300,1.460
778,-0.300,1.485
779,-0.295,1.525
780,-0.295,1.570
781,-0.275,1.620
782,-0.260,1.640
783,-0.280,1.670
784,-0.280,1.700
785,-0.270,1.740
786,-0.260,1.775
787,-0.255,1.825
788,-0.245,1.855
789,-0.240,1.875
790,-0.245,1.880
791,-0.245,1.910
792,-0.235,1.940
793,-0.205,1.955
794,-0.210,1.970
795,-0.200,1.955
796,-0.210,1.960
797,-0.205,1.955
798,-0.180,1.970
799,-0.165,1.945
800,-0.155,1.935
801,-0.155,1.905
802,-0.155,1.860
803,-0.155,1.830
804,-0.140,1.800
805,-0.135,1.775
806,-0.115,1.720
807,-0.125,1.650
808,-0.125,1.590
809,-0.135,1.525
810,-0.120,1.470
811,-0.125,1.420
812,-0.110,1.340
813,-0.115,1.250
814,-0.130,1.185
815,-0.135,1.120
816,-0.130,1.050
817,-0.115,0.990
818,-0.125,0.915
819,-0.115,0.840
820,-0.120,0.770
821,-0.140,0.705
822,-0.125,0.660
823,-0.130,0.610
824,-0.125,0.550
825,-0.135,0.490
826,-0.145,0.440
827,-0.150,0.385
828,-0.150,0.355
829,-0.145,0.325
830,-0.150,0.280
831,-0.175,0.245
832,-0.180,0.200
833,-0.200,0.185
834,-0.190,0.155
835,-0.190,0.145
836,-0.185,0.130
837,-0.200,0.110
838,-0.210,0.080
839,-0.220,0.065
840,-0.210,0.065
841,-0.210,0.055
842,-0.225,0.050
843,-0.225,0.025
844,-0.230,0.010
845,-0.235,-0.005
846,-0.225,0.005
847,-0.225,0.010
848,-0.220,0.005
849,-0.225,0.005
850,-0.245,-0.005
851,-0.250,0.000
852,-0.240,0.000
853,-0.235,0.005
854,-0.230,0.000
855,-0.225,-0.005
856,-0.240,-0.020
857,-0.240,-0.010
858,-0.235,-0.005
859,-0.240,0.000
860,-0.235,0.005
861,-0.245,-0.010
862,-0.255,-0.010
863,-0.260,-0.010
864,-0.255,0.000
865,-0.245,0.000
866,-0.255,-0.005
867,-0.255,-0.015
868,-0.255,-0.010
869,-0.260,-0.015
870,-0.255,-0.015
871,-0.240,-0.005
872,-0.240,-0.010
873,-0.245,-0.020
874,-0.265,-0.025
875,-0.285,-0.040
876,-0.280,-0.025
877,-0.275,-0.015
878,-0.255,-0.020
879,-0.245,-0.050
880,-0.250,-0.065
881,-0.265,-0.060
882,-0.250,-0.060
883,-0.250,-0.055
884,-0.250,-0.055
885,-0.255,-0.075
886,-0.275,-0.100
887,-0.290,-0.100
888,-0.285,-0.085
889,-0.290,-0.090
890,-0.270,-0.105
891,-0.275,-0.110
892,-0.280,-0.120
893,-0.285,-0.125
894,-0.285,-0.115
895,-0.290,-0.125
896,-0.285,-0.120
897,-0.300,-0.125
898,-0.295,-0.140
899,-0.300,-0.160
900,-0.290,-0.145
901,-0.290,-0.160
902,-0.275,-0.155
903,-0.285,-0.175
904,-0.310,-0.180
905,-0.305,-0.180
906,-0.310,-0.175
907,-0.305,-0.165
908,-0.300,-0.180
909,-0.305,-0.185
910,-0.305,-0.205
911,-0.315,-0.205
912,-0.300,-0.190
913,-0.295,-0.195
914,-0.295,-0.200
915,-0.295,-0.210
916,-0.310,-0.220
917,-0.330,-0.205
918,-0.305,-0.205
919,-0.300,-0.200
920,-0.290,-0.215
921,-0.290,-0.215
922,-0.300,-0.230
923,-0.310,-0.230
924,-0.305,-0.220
925,-0.300,-0.215
926,-0.295,-0.215
927,-0.300,-0.235
928,-0.305,-0.250
929,-0.315,-0.245
930,-0.300,-0.235
931,-0.305,-0.235
932,-0.300,-0.230
933,-0.290,-0.240
934,-0.305,-0.255
935,-0.315,-0.245
936,-0.305,-0.245
937,-0.305,-0.240
938,-0.295,-0.250
939,-0.295,-0.250
940,-0.305,-0.265
941,-0.305,-0.255
942,-0.295,-0.240
943,-0.305,-0.240
944,-0.295,-0.255
945,-0.295,-0.255
946,-0.315,-0.275
947,-0.310,-0.260
948,-0.315,-0.250
949,-0.300,-0.240
950,-0.295,-0.240
951,-0.305,-0.255
952,-0.310,-0.275
953,-0.320,-0.265
954,-0.310,-0.255
955,-0.300,-0.260
956,-0.285,-0.250
957,-0.280,-0.255
958,-0.285,-0.270
959,-0.290,-0.270
960,-0.290,-0.250
961,-0.270,-0.240
962,-0.270,-0.255
963,-0.280,-0.260
964,-0.295,-0.265
965,-0.305,-0.260
966,-0.290,-0.250
967,-0.290,-0.240
968,-0.285,-0.250
969,-0.285,-0.255
970,-0.285,-0.270
971,-0.295,-0.265
972,-0.295,-0.250
973,-0.280,-0.235
974,-0.270,-0.235
975,-0.270,-0.255
976,-0.275,-0.255
977,-0.270,-0.250
978,-0.250,-0.235
979,-0.240,-0.185
980,-0.230,-0.130
981,-0.225,0.075
982,-0.200,0.440
983,-0.170,0.720
984,-0.095,0.665
985,0.055,0.410
986,0.350,0.235
987,0.715,0.160
988,0.880,0.095
989,0.700,0.045
990,0.390,-0.025
991,0.205,-0.105
992,0.150,-0.235
993,0.150,-0.375
994,0.145,-0.530
995,0.125,-0.705
996,0.110,-0.900
997,0.125,-1.095
998,0.135,-1.290
999,0.140,-1.600
1000,0.120,-1.730
1001,0.110,-1.865
1002,0.090,-2.015
1003,0.090,-2.205
1004,0.090,-2.430
1005,0.080,-2.590
1006,0.060,-2.705
1007,0.045,-2.790
1008,0.035,-2.875
1009,-0.010,-2.980
1010,-0.045,-3.070
1011,-0.100,-3.145
1012,-0.170,-3.170
1013,-0.220,-3.195
1014,-0.265,-3.205
1015,-0.310,-3.240
1016,-0.375,-3.255
1017,-0.460,-3.280
1018,-0.550,-3.275
1019,-0.600,-3.250
1020,-0.600,-3.260
1021,-0.590,-3.245
1022,-0.570,-3.235
1023,-0.525,-3.235
1024,-0.500,-3.195
1025,-0.485,-3.120
1026,-0.480,-3.025
1027,-0.485,-2.900
1028,-0.490,-2.770
1029,-0.480,-2.610
1030,-0.485,-2.405
1031,-0.450,-2.175
1032,-0.420,-1.925
1033,-0.375,-1.685
1034,-0.335,-1.440
1035,-0.320,-1.185
1036,-0.315,-0.935
1037,-0.320,-0.710
1038,-0.320,-0.495
1039,-0.305,-0.300
1040,-0.295,-0.145
1041,-0.300,0.005
1042,-0.295,0.175
1043,-0.280,0.320
1044,-0.270,0.455
1045,-0.255,0.535
1046,-0.250,0.590
1047,-0.230,0.635
1048,-0.225,0.695
1049,-0.220,0.735
1050,-0.210,0.770
1051,-0.215,0.790
1052,-0.225,0.815
1053,-0.235,0.830
1054,-0.245,0.870
1055,-0.225,0.895
1056,-0.210,0.925
1057,-0.210,0.960
1058,-0.195,0.975
1059,-0.200,1.010
1060,-0.215,1.045
1061,-0.215,1.085
1062,-0.220,1.115
1063,-0.225,1.135
1064,-0.230,1.150
1065,-0.230,1.155
1066,-0.250,1.190
1067,-0.245,1.230
1068,-0.250,1.255
1069,-0.240,1.290
1070,-0.235,1.310
1071,-0.235,1.330
1072,-0.245,1.360
1073,-0.240,1.405
1074,-0.245,1.435
1075,-0.255,1.480
1076,-0.260,1.490
1077,-0.275,1.500
1078,-0.275,1.540
1079,-0.260,1.580
1080,-0.255,1.625
1081,-0.255,1.635
1082,-0.260,1.645
1083,-0.265,1.665
1084,-0.265,1.705
1085,-0.250,1.750
1086,-0.240,1.775
1087,-0.235,1.785
1088,-0.225,1.800
1089,-0.230,1.810
1090,-0.230,1.825
1091,-0.215,1.850
1092,-0.210,1.865
1093,-0.220,1.875
1094,-0.210,1.870
1095,-0.215,1.850
1096,-0.210,1.860
1097,-0.195,1.860
1098,-0.175,1.865
1099,-0.150,1.860
1100,-0.145,1.830
1101,-0.155,1.795
1102,-0.160,1.770
1103,-0.165,1.765
1104,-0.145,1.735
1105,-0.140,1.695
1106,-0.130,1.645
1107,-0.125,1.590
1108,-0.105,1.540
1109,-0.100,1.495
1110,-0.085,1.455
1111,-0.075,1.385
1112,-0.080,1.325
1113,-0.105,1.245
1114,-0.100,1.205
1115,-0.095,1.145
1116,-0.095,1.095
1117,-0.085,1.040
1118,-0.090,0.960
1119,-0.100,0.885
1120,-0.115,0.845
1121,-0.100,0.790
1122,-0.090,0.750
1123,-0.090,0.690
1124,-0.095,0.615
1125,-0.115,0.555
1126,-0.125,0.505
1127,-0.120,0.465
1128,-0.110,0.425
1129,-0.115,0.385
1130,-0.120,0.335
1131,-0.120,0.290
1132,-0.140,0.255
1133,-0.140,0.240
1134,-0.135,0.215
1135,-0.140,0.190
1136,-0.160,0.155
1137,-0.170,0.110
1138,-0.180,0.100
1139,-0.175,0.090
1140,-0.175,0.080
1141,-0.165,0.065
1142,-0.180,0.030
1143,-0.190,0.015
1144,-0.200,0.000
1145,-0.200,-0.005
1146,-0.185,-0.005
1147,-0.195,-0.010
1148,-0.180,-0.030
1149,-0.205,-0.040
1150,-0.215,-0.030
1151,-0.215,-0.035
1152,-0.210,-0.030
1153,-0.210,-0.040
1154,-0.220,-0.050
1155,-0.230,-0.060
1156,-0.235,-0.050
1157,-0.230,-0.040
1158,-0.220,-0.035
1159,-0.220,-0.045
1160,-0.225,-0.045
1161,-0.230,-0.055
1162,-0.235,-0.050
1163,-0.230,-0.050
1164,-0.225,-0.035
1165,-0.225,-0.035
1166,-0.235,-0.050
1167,-0.240,-0.040
1168,-0.255,-0.050
1169,-0.240,-0.045
1170,-0.230,-0.040
1171,-0.230,-0.030
1172,-0.235,-0.065
1173,-0.255,-0.060
1174,-0.260,-0.050
1175,-0.250,-0.040
1176,-0.245,-0.040
1177,-0.245,-0.040
1178,-0.245,-0.055
1179,-0.250,-0.070
1180,-0.260,-0.055
1181,-0.260,-0.055
1182,-0.240,-0.045
1183,-0.250,-0.045
1184,-0.260,-0.065
1185,-0.250,-0.080
1186,-0.260,-0.085
1187,-0.255,-0.070
1188,-0.245,-0.065
1189,-0.245,-0.080
1190,-0.260,-0.090
1191,-0.260,-0.105
1192,-0.255,-0.105
1193,-0.260,-0.095
1194,-0.260,-0.095
1195,-0.255,-0.105
1196,-0.265,-0.115
1197,-0.275,-0.130
1198,-0.280,-0.140
1199,-0.270,-0.125
1200,-0.265,-0.135
1201,-0.260,-0.135
1202,-0.275,-0.145
1203,-0.275,-0.160
1204,-0.285,-0.160
1205,-0.280,-0.155
1206,-0.270,-0.160
1207,-0.275,-0.170
1208,-0.275,-0.165
1209,-0.290,-0.180
1210,-0.300,-0.190
1211,-0.285,-0.195
1212,-0.280,-0.175
1213,-0.280,-0.175
1214,-0.290,-0.205
1215,-0.290,-0.205
1216,-0.300,-0.215
1217,-0.300,-0.210
1218,-0.275,-0.200
1219,-0.285,-0.200
1220,-0.285,-0.220
1221,-0.295,-0.225
1222,-0.305,-0.230
1223,-0.300,-0.210
1224,-0.290,-0.205
1225,-0.285,-0.210
1226,-0.285,-0.240
1227,-0.305,-0.250
1228,-0.305,-0.240
1229,-0.300,-0.230
1230,-0.290,-0.230
1231,-0.300,-0.230
1232,-0.295,-0.250
1233,-0.315,-0.255
1234,-0.315,-0.245
1235,-0.310,-0.245
1236,-0.300,-0.245
1237,-0.300,-0.240
1238,-0.305,-0.265
1239,-0.305,-0.260
1240,-0.320,-0.255
1241,-0.300,-0.250
1242,-0.295,-0.245
1243,-0.295,-0.245
1244,-0.300,-0.255
1245,-0.315,-0.270
1246,-0.320,-0.270
1247,-0.310,-0.275
1248,-0.305,-0.250
1249,-0.290,-0.255
1250,-0.300,-0.260
1251,-0.310,-0.280
1252,-0.315,-0.275
1253,-0.305,-0.260
1254,-0.300,-0.265
1255,-0.300,-0.260
1256,-0.295,-0.270
1257,-0.315,-0.280
1258,-0.315,-0.275
1259,-0.315,-0.270
1260,-0.300,-0.265
1261,-0.295,-0.270
1262,-0.305,-0.285
1263,-0.315,-0.290
1264,-0.315,-0.280
1265,-0.305,-0.270
1266,-0.295,-0.265
1267,-0.300,-0.265
1268,-0.295,-0.285
1269,-0.320,-0.280
1270,-0.320,-0.285
1271,-0.290,-0.265
1272,-0.300,-0.265
1273,-0.295,-0.265
1274,-0.300,-0.265
1275,-0.295,-0.285
1276,-0.300,-0.275
1277,-0.300,-0.265
1278,-0.300,-0.255
1279,-0.300,-0.270
1280,-0.290,-0.280
1281,-0.305,-0.290
1282,-0.300,-0.265
1283,-0.310,-0.270
1284,-0.300,-0.265
1285,-0.285,-0.260
1286,-0.295,-0.275
1287,-0.305,-0.280
1288,-0.310,-0.270
1289,-0.290,-0.265
1290,-0.275,-0.255
1291,-0.270,-0.265
1292,-0.270,-0.260
1293,-0.285,-0.260
1294,-0.280,-0.215
1295,-0.265,-0.165
1296,-0.250,-0.020
1297,-0.230,0.250
1298,-0.205,0.630
1299,-0.170,0.850
1300,-0.130,0.755
1301,-0.015,0.510
1302,0.215,0.330
1303,0.580,0.240
1304,0.845,0.170
1305,0.815,0.125
1306,0.540,0.060
1307,0.270,0.015
1308,0.155,-0.055
1309,0.135,-0.160
1310,0.140,-0.295
1311,0.135,-0.430
1312,0.140,-0.575
1313,0.140,-0.740
1314,0.150,-0.905
1315,0.165,-1.095
1316,0.160,-1.255
1317,0.160,-1.415
1318,0.170,-1.550
1319,0.170,-1.670
1320,0.160,-1.805
1321,0.145,-1.970
1322,0.125,-2.165
1323,0.125,-2.385
1324,0.100,-2.560
1325,0.100,-2.660
1326,0.080,-2.755
1327,0.050,-2.845
1328,0.020,-2.960
1329,-0.030,-3.050
1330,-0.080,-3.125
1331,-0.130,-3.150
1332,-0.160,-3.180
1333,-0.220,-3.210
1334,-0.280,-3.240
1335,-0.340,-3.270
1336,-0.410,-3.265
1337,-0.480,-3.260
1338,-0.530,-3.255
1339,-0.565,-3.265
1340,-0.555,-3.270
1341,-0.525,-3.270
1342,-0.490,-3.245
1343,-0.465,-3.210
1344,-0.445,-3.155
1345,-0.450,-3.085
1346,-0.445,-3.005
1347,-0.445,-2.920
1348,-0.450,-2.780
1349,-0.430,-2.615
1350,-0.410,-2.465
1351,-0.400,-2.285
1352,-0.385,-2.110
1353,-0.370,-1.905
1354,-0.340,-1.670
1355,-0.305,-1.425
1356,-0.280,-1.185
1357,-0.280,-0.970
1358,-0.295,-0.785
1359,-0.320,-0.610
1360,-0.325,-0.400
1361,-0.320,-0.220
1362,-0.320,-0.055
1363,-0.325,0.110
1364,-0.320,0.250
1365,-0.330,0.385
1366,-0.325,0.515
1367,-0.320,0.615
1368,-0.295,0.690
1369,-0.295,0.745
1370,-0.290,0.785
1371,-0.290,0.825
1372,-0.290,0.865
1373,-0.275,0.915
1374,-0.275,0.960
1375,-0.285,0.990
1376,-0.275,1.010
1377,-0.265,1.030
1378,-0.265,1.065
1379,-0.250,1.110
1380,-0.250,1.145
1381,-0.245,1.160
1382,-0.245,1.180
1383,-0.250,1.185
1384,-0.240,1.235
1385,-0.225,1.250
1386,-0.230,1.285
1387,-0.225,1.290
1388,-0.230,1.300
1389,-0.225,1.310
1390,-0.235,1.340
1391,-0.215,1.365
1392,-0.200,1.390
1393,-0.180,1.410
1394,-0.185,1.425
1395,-0.180,1.455
1396,-0.175,1.500
1397,-0.175,1.545
1398,-0.175,1.585
1399,-0.180,1.635
1400,-0.200,1.660
1401,-0.220,1.685
1402,-0.230,1.710
1403,-0.225,1.755
1404,-0.235,1.780
1405,-0.240,1.805
1406,-0.255,1.825
1407,-0.250,1.825
1408,-0.255,1.855
1409,-0.240,1.890
1410,-0.230,1.905
1411,-0.235,1.920
1412,-0.230,1.920
1413,-0.240,1.905
1414,-0.240,1.905
1415,-0.230,1.915
1416,-0.215,1.910
1417,-0.225,1.890
1418,-0.220,1.855
1419,-0.210,1.820
1420,-0.210,1.805
1421,-0.195,1.785
1422,-0.195,1.745
1423,-0.185,1.700
1424,-0.190,1.645
1425,-0.190,1.595
1426,-0.185,1.550
1427,-0.170,1.505
1428,-0.165,1.470
1429,-0.170,1.390
1430,-0.160,1.335
1431,-0.170,1.250
1432,-0.165,1.190
1433,-0.145,1.135
1434,-0.150,1.085
1435,-0.145,1.020
1436,-0.150,0.945
1437,-0.155,0.870
1438,-0.160,0.805
1439,-0.160,0.745
1440,-0.150,0.705
1441,-0.155,0.635
1442,-0.150,0.565
1443,-0.165,0.505
1444,-0.175,0.465
1445,-0.165,0.430
1446,-0.165,0.385
1447,-0.175,0.345
1448,-0.185,0.280
1449,-0.205,0.245
1450,-0.205,0.210
1451,-0.200,0.190
1452,-0.195,0.170
1453,-0.200,0.135
1454,-0.215,0.090
1455,-0.215,0.075
1456,-0.225,0.040
1457,-0.220,0.050
1458,-0.210,0.035
1459,-0.215,0.020
1460,-0.215,0.000
1461,-0.240,-0.030
1462,-0.245,-0.035
1463,-0.250,-0.030
1464,-0.240,-0.025
1465,-0.245,-0.040
1466,-0.250,-0.055
1467,-0.260,-0.065
1468,-0.260,-0.055
1469,-0.260,-0.045
1470,-0.250,-0.045
1471,-0.245,-0.050
1472,-0.255,-0.065
1473,-0.250,-0.075
1474,-0.265,-0.065
1475,-0.270,-0.050
1476,-0.245,-0.045
1477,-0.255,-0.045
1478,-0.250,-0.065
1479,-0.265,-0.075
1480,-0.275,-0.050
1481,-0.275,-0.045
1482,-0.265,-0.040
1483,-0.280,-0.045
1484,-0.280,-0.055
1485,-0.285,-0.075
1486,-0.290,-0.065
1487,-0.275,-0.050
1488,-0.270,-0.055
1489,-0.285,-0.055
1490,-0.275,-0.060
1491,-0.290,-0.070
1492,-0.295,-0.055
1493,-0.270,-0.055
1494,-0.275,-0.055
1495,-0.275,-0.060
1496,-0.285,-0.060
1497,-0.290,-0.085
1498,-0.295,-0.085
1499,-0.290,-0.080
1500,-0.290,-0.075
1501,-0.295,-0.080
1502,-0.305,-0.100
1503,-0.305,-0.110
1504,-0.310,-0.110
1505,-0.300,-0.090
1506,-0.290,-0.090
1507,-0.285,-0.090
1508,-0.305,-0.135
1509,-0.295,-0.140
1510,-0.310,-0.125
1511,-0.310,-0.125
1512,-0.300,-0.130
1513,-0.305,-0.140
1514,-0.315,-0.145
1515,-0.325,-0.175
1516,-0.320,-0.170
1517,-0.305,-0.155
1518,-0.305,-0.160
1519,-0.320,-0.175
1520,-0.315,-0.185
1521,-0.330,-0.205
1522,-0.325,-0.195
1523,-0.325,-0.195
1524,-0.315,-0.190
1525,-0.305,-0.190
1526,-0.320,-0.205
1527,-0.340,-0.215
1528,-0.330,-0.210
1529,-0.320,-0.210
1530,-0.320,-0.220
1531,-0.320,-0.215
1532,-0.325,-0.220
1533,-0.335,-0.240
1534,-0.335,-0.235
1535,-0.345,-0.240
1536,-0.330,-0.230
1537,-0.320,-0.230
1538,-0.325,-0.245
1539,-0.340,-0.250
1540,-0.345,-0.250
1541,-0.340,-0.240
1542,-0.320,-0.250
1543,-0.315,-0.240
1544,-0.335,-0.245
1545,-0.345,-0.260
1546,-0.335,-0.255
1547,-0.335,-0.255
1548,-0.330,-0.240
1549,-0.335,-0.240
1550,-0.335,-0.260
1551,-0.340,-0.265
1552,-0.340,-0.270
1553,-0.330,-0.255
1554,-0.320,-0.260
1555,-0.330,-0.255
1556,-0.335,-0.260
1557,-0.345,-0.275
1558,-0.350,-0.265
1559,-0.335,-0.265
1560,-0.325,-0.260
1561,-0.320,-0.260
1562,-0.330,-0.285
1563,-0.340,-0.285
1564,-0.345,-0.280
1565,-0.330,-0.275
1566,-0.325,-0.270
1567,-0.325,-0.265
1568,-0.335,-0.285
1569,-0.345,-0.285
1570,-0.340,-0.285
1571,-0.345,-0.280
1572,-0.320,-0.260
1573,-0.315,-0.260
1574,-0.330,-0.280
1575,-0.335,-0.285
1576,-0.340,-0.275
1577,-0.330,-0.270
1578,-0.330,-0.260
1579,-0.325,-0.260
1580,-0.320,-0.255
1581,-0.335,-0.275
1582,-0.330,-0.275
1583,-0.325,-0.260
1584,-0.315,-0.260
1585,-0.315,-0.255
1586,-0.330,-0.260
1587,-0.340,-0.280
1588,-0.330,-0.285
1589,-0.325,-0.265
1590,-0.310,-0.255
1591,-0.305,-0.260
1592,-0.310,-0.260
1593,-0.310,-0.270
1594,-0.325,-0.270
1595,-0.315,-0.270
1596,-0.300,-0.255
1597,-0.300,-0.255
1598,-0.305,-0.260
1599,-0.310,-0.270
1600,-0.310,-0.245
1601,-0.300,-0.230
1602,-0.290,-0.225
1603,-0.280,-0.200
1604,-0.275,-0.165
1605,-0.265,-0.045
1606,-0.265,0.240
1607,-0.230,0.615
1608,-0.180,0.830
1609,-0.110,0.705
1610,0.005,0.430
1611,0.260,0.245
1612,0.645,0.180
1613,0.890,0.130
1614,0.800,0.075
1615,0.455,0.000
1616,0.190,-0.080
1617,0.100,-0.200
1618,0.095,-0.305
1619,0.120,-0.425
1620,0.120,-0.585
1621,0.110,-0.760
1622,0.105,-0.980
1623,0.110,-1.175
1624,0.100,-1.350
1625,0.120,-1.475
1626,0.120,-1.595
1627,0.125,-1.725
1628,0.095,-1.875
1629,0.075,-2.075
1630,0.060,-2.260
1631,0.065,-2.435
1632,0.080,-2.580
1633,0.060,-2.710
1634,0.030,-2.815
1635,-0.015,-2.920
1636,-0.050,-2.995
1637,-0.080,-3.070
1638,-0.115,-3.130
1639,-0.170,-3.165
1640,-0.225,-3.200
1641,-0.290,-3.225
1642,-0.350,-3.250
1643,-0.405,-3.240
1644,-0.465,-3.245
1645,-0.545,-3.245
1646,-0.600,-3.265
1647,-0.625,-3.260
1648,-0.590,-3.250
1649,-0.550,-3.235
1650,-0.505,-3.210
1651,-0.475,-3.200
1652,-0.455,-3.165
1653,-0.460,-3.110
1654,-0.455,-3.030
1655,-0.460,-2.900
1656,-0.445,-2.770
1657,-0.440,-2.610
1658,-0.430,-2.440
1659,-0.410,-2.235
1660,-0.390,-1.980
1661,-0.340,-1.715
1662,-0.295,-1.450
1663,-0.295,-1.195
1664,-0.300,-0.965
1665,-0.315,-0.745
1666,-0.355,-0.505
1667,-0.330,-0.285
1668,-0.330,-0.085
1669,-0.345,0.100
1670,-0.355,0.265
1671,-0.350,0.420
1672,-0.350,0.560
1673,-0.330,0.660
1674,-0.320,0.735
1675,-0.295,0.785
1676,-0.305,0.820
1677,-0.305,0.850
1678,-0.310,0.895
1679,-0.310,0.945
1680,-0.300,0.980
1681,-0.290,1.020
1682,-0.280,1.040
1683,-0.290,1.060
1684,-0.285,1.095
1685,-0.285,1.135
1686,-0.275,1.165
1687,-0.260,1.190
1688,-0.270,1.225
1689,-0.270,1.235
1690,-0.270,1.275
1691,-0.255,1.315
1692,-0.255,1.340
1693,-0.260,1.385
1694,-0.260,1.400
1695,-0.255,1.435
1696,-0.265,1.470
1697,-0.260,1.515
1698,-0.240,1.540
1699,-0.240,1.585
1700,-0.240,1.620
1701,-0.240,1.640
1702,-0.250,1.670
1703,-0.240,1.720
1704,-0.225,1.765
1705,-0.210,1.780
1706,-0.220,1.805
1707,-0.215,1.835
1708,-0.215,1.870
1709,-0.200,1.915
1710,-0.200,1.940
1711,-0.195,1.955
1712,-0.200,1.975
1713,-0.200,1.995
1714,-0.195,2.030
1715,-0.185,2.040
1716,-0.170,2.060
1717,-0.160,2.075
1718,-0.150,2.060
1719,-0.150,2.065
1720,-0.160,2.060
1721,-0.145,2.070
1722,-0.140,2.070
1723,-0.140,2.035
1724,-0.140,2.005
1725,-0.140,1.970
1726,-0.140,1.950
1727,-0.135,1.930
1728,-0.125,1.875
1729,-0.125,1.825
1730,-0.110,1.775
1731,-0.115,1.700
1732,-0.125,1.660
1733,-0.090,1.610
1734,-0.080,1.535
1735,-0.080,1.470
1736,-0.080,1.395
1737,-0.090,1.310
1738,-0.095,1.220
1739,-0.085,1.145
1740,-0.080,1.070
1741,-0.075,0.980
1742,-0.080,0.895
1743,-0.090,0.815
1744,-0.085,0.735
1745,-0.085,0.680
1746,-0.080,0.635
1747,-0.090,0.550
1748,-0.100,0.490
1749,-0.110,0.425
1750,-0.135,0.380
1751,-0.130,0.360
1752,-0.125,0.340
1753,-0.135,0.305
1754,-0.150,0.255
1755,-0.175,0.220
1756,-0.190,0.190
1757,-0.200,0.180
1758,-0.200,0.160
1759,-0.195,0.135
1760,-0.210,0.105
1761,-0.230,0.080
1762,-0.220,0.065
1763,-0.230,0.070
1764,-0.220,0.075
1765,-0.220,0.050
1766,-0.245,0.045
1767,-0.270,0.020
1768,-0.255,0.025
1769,-0.255,0.020
1770,-0.250,0.030
1771,-0.255,0.025
1772,-0.260,0.010
1773,-0.255,-0.005
1774,-0.265,0.000
1775,-0.265,0.005
1776,-0.250,0.015
1777,-0.255,0.015
1778,-0.255,0.005
1779,-0.270,0.015
1780,-0.275,0.010
1781,-0.270,0.020
1782,-0.265,0.020
1783,-0.270,0.015
1784,-0.265,0.025
1785,-0.275,-0.005
1786,-0.280,0.005
1787,-0.275,0.030
1788,-0.270,0.030
1789,-0.275,0.030
1790,-0.285,0.015
1791,-0.295,-0.005
1792,-0.295,0.015
1793,-0.290,0.025
1794,-0.275,0.015
1795,-0.285,0.030
1796,-0.305,0.010
1797,-0.300,0.000
1798,-0.295,-0.005
1799,-0.295,0.000
1800,-0.290,0.010
1801,-0.290,-0.005
1802,-0.290,-0.015
1803,-0.305,-0.030
1804,-0.310,-0.020
1805,-0.315,-0.010
1806,-0.295,-0.015
1807,-0.305,-0.035
1808,-0.310,-0.040
1809,-0.315,-0.055
1810,-0.330,-0.055
1811,-0.320,-0.045
1812,-0.320,-0.045
1813,-0.315,-0.055
1814,-0.330,-0.075
1815,-0.345,-0.080
1816,-0.340,-0.075
1817,-0.335,-0.075
1818,-0.325,-0.070
1819,-0.335,-0.085
1820,-0.325,-0.090
1821,-0.330,-0.100
1822,-0.340,-0.095
1823,-0.335,-0.095
1824,-0.320,-0.100
1825,-0.330,-0.105
1826,-0.335,-0.115
1827,-0.335,-0.120
1828,-0.345,-0.120
1829,-0.335,-0.110
1830,-0.330,-0.115
1831,-0.330,-0.110
1832,-0.340,-0.130
1833,-0.350,-0.140
1834,-0.340,-0.130
1835,-0.340,-0.110
1836,-0.330,-0.115
1837,-0.325,-0.115
1838,-0.330,-0.135
1839,-0.340,-0.145
1840,-0.340,-0.155
1841,-0.335,-0.135
1842,-0.330,-0.135
1843,-0.330,-0.135
1844,-0.330,-0.140
1845,-0.340,-0.160
1846,-0.350,-0.145
1847,-0.340,-0.140
1848,-0.330,-0.140
1849,-0.330,-0.140
1850,-0.330,-0.150
1851,-0.335,-0.160
1852,-0.340,-0.165
1853,-0.345,-0.145
1854,-0.330,-0.145
1855,-0.335,-0.135
1856,-0.335,-0.155
1857,-0.340,-0.165
1858,-0.335,-0.150
1859,-0.325,-0.150
1860,-0.320,-0.145
1861,-0.320,-0.140
1862,-0.320,-0.165
1863,-0.330,-0.170
1864,-0.320,-0.165
1865,-0.315,-0.150
1866,-0.310,-0.155
1867,-0.320,-0.165
1868,-0.330,-0.165
1869,-0.335,-0.170
1870,-0.335,-0.160
1871,-0.320,-0.150
1872,-0.315,-0.150
1873,-0.330,-0.155
1874,-0.325,-0.165
1875,-0.315,-0.170
1876,-0.310,-0.170
1877,-0.305,-0.160
1878,-0.285,-0.165
1879,-0.295,-0.150
1880,-0.295,-0.160
1881,-0.305,-0.185
1882,-0.320,-0.175
1883,-0.305,-0.180
1884,-0.280,-0.155
1885,-0.275,-0.160
1886,-0.285,-0.175
1887,-0.290,-0.180
1888,-0.300,-0.185
1889,-0.290,-0.160
1890,-0.285,-0.160
1891,-0.280,-0.165
1892,-0.295,-0.180
1893,-0.295,-0.185
1894,-0.295,-0.170
1895,-0.285,-0.170
1896,-0.285,-0.150
1897,-0.280,-0.160
1898,-0.280,-0.155
1899,-0.280,-0.160
1900,-0.275,-0.150
1901,-0.270,-0.115
1902,-0.260,-0.030
1903,-0.230,0.185
1904,-0.210,0.590
1905,-0.160,0.845
1906,-0.085,0.770
1907,0.095,0.515
1908,0.420,0.335
1909,0.810,0.265
1910,0.935,0.195
1911,0.735,0.125
1912,0.385,0.055
1913,0.185,-0.025
1914,0.140,-0.150
1915,0.150,-0.300
1916,0.155,-0.470
1917,0.145,-0.655
1918,0.145,-0.845
1919,0.145,-1.050
1920,0.150,-1.255
1921,0.155,-1.425
1922,0.140,-1.585
1923,0.130,-1.730
1924,0.110,-1.865
1925,0.115,-2.010
1926,0.110,-2.190
1927,0.125,-2.410
1928,0.115,-2.590
1929,0.100,-2.720
1930,0.065,-2.805
1931,0.040,-2.875
1932,0.020,-2.960
1933,-0.010,-3.025
1934,-0.070,-3.090
1935,-0.140,-3.125
1936,-0.195,-3.140
1937,-0.250,-3.145
1938,-0.295,-3.160
1939,-0.365,-3.180
1940,-0.455,-3.190
1941,-0.530,-3.190
1942,-0.580,-3.180
1943,-0.560,-3.180
1944,-0.530,-3.160
1945,-0.475,-3.160
1946,-0.455,-3.135
1947,-0.460,-3.095
1948,-0.460,-3.005
1949,-0.470,-2.900
1950,-0.465,-2.760
1951,-0.455,-2.590
1952,-0.430,-2.395
1953,-0.425,-2.160
1954,-0.385,-1.875
1955,-0.330,-1.590
1956,-0.290,-1.320
1957,-0.270,-1.035
1958,-0.280,-0.780
1959,-0.315,-0.545
1960,-0.320,-0.315
1961,-0.310,-0.085
1962,-0.320,0.100
1963,-0.320,0.285
1964,-0.320,0.435
1965,-0.315,0.555
1966,-0.315,0.675
1967,-0.285,0.750
1968,-0.255,0.815
1969,-0.245,0.850
1970,-0.250,0.885
1971,-0.260,0.925
1972,-0.250,0.975
1973,-0.250,1.015
1974,-0.235,1.050
1975,-0.235,1.090
1976,-0.245,1.115
1977,-0.240,1.140
1978,-0.245,1.170
1979,-0.230,1.220
1980,-0.220,1.245
1981,-0.210,1.270
1982,-0.235,1.285
1983,-0.230,1.315
1984,-0.225,1.370
1985,-0.205,1.400
1986,-0.195,1.435
1987,-0.210,1.475
1988,-0.185,1.505
1989,-0.195,1.535
1990,-0.195,1.570
1991,-0.180,1.610
1992,-0.175,1.650
1993,-0.175,1.680
1994,-0.165,1.700
1995,-0.190,1.735
1996,-0.185,1.775
1997,-0.175,1.820
1998,-0.165,1.855
1999,-0.160,1.890
2000,-0.165,1.930
2001,-0.145,1.935
2002,-0.145,1.960
2003,-0.130,2.005
2004,-0.115,2.015
2005,-0.115,2.035
2006,-0.110,2.045
2007,-0.115,2.025
2008,-0.110,2.050
2009,-0.105,2.065
2010,-0.095,2.060
2011,-0.090,2.045
2012,-0.095,2.030
2013,-0.080,2.000
2014,-0.095,1.975
2015,-0.075,1.965
2016,-0.065,1.945
2017,-0.065,1.900
2018,-0.065,1.845
2019,-0.070,1.785
2020,-0.060,1.765
2021,-0.045,1.720
2022,-0.040,1.675
2023,-0.030,1.610
2024,-0.025,1.545
2025,-0.030,1.470
2026,-0.045,1.410
2027,-0.020,1.345
2028,-0.025,1.265
2029,-0.020,1.200
2030,-0.025,1.105
2031,-0.050,1.010
2032,-0.040,0.955
2033,-0.035,0.885
2034,-0.010,0.830
2035,-0.005,0.750
2036,-0.010,0.670
2037,-0.030,0.605
2038,-0.030,0.555
2039,-0.030,0.505
2040,-0.045,0.465
2041,-0.040,0.410
2042,-0.055,0.350
2043,-0.060,0.305
2044,-0.085,0.275
2045,-0.095,0.250
2046,-0.095,0.235
2047,-0.095,0.195
2048,-0.110,0.180
2049,-0.110,0.145
2050,-0.110,0.145
2051,-0.120,0.140
2052,-0.120,0.125
2053,-0.130,0.090
2054,-0.140,0.075
2055,-0.160,0.055
2056,-0.170,0.060
2057,-0.165,0.065
2058,-0.170,0.065
2059,-0.185,0.040
2060,-0.185,0.035
2061,-0.200,0.020
2062,-0.205,0.025
2063,-0.200,0.025
2064,-0.185,0.020
2065,-0.190,0.025
2066,-0.200,0.010
2067,-0.190,0.000
2068,-0.200,0.005
2069,-0.185,0.010
2070,-0.180,0.025
2071,-0.185,0.015
2072,-0.190,0.000
2073,-0.205,0.005
2074,-0.220,0.015
2075,-0.210,0.015
2076,-0.200,0.030
2077,-0.200,0.030
2078,-0.195,0.020
2079,-0.205,0.030
2080,-0.200,0.020
2081,-0.195,0.035
2082,-0.200,0.035
2083,-0.200,0.035
2084,-0.215,0.020
2085,-0.220,0.015
2086,-0.215,0.025
2087,-0.205,0.030
2088,-0.195,0.025
2089,-0.195,0.025
2090,-0.205,0.005
2091,-0.225,-0.015
2092,-0.225,0.015
2093,-0.235,0.015
2094,-0.225,0.010
2095,-0.225,0.000
2096,-0.225,-0.015
2097,-0.235,-0.025
2098,-0.245,-0.025
2099,-0.245,-0.010
2100,-0.245,-0.015
2101,-0.245,-0.020
2102,-0.245,-0.035
2103,-0.245,-0.050
2104,-0.255,-0.040
2105,-0.250,-0.055
2106,-0.245,-0.045
2107,-0.260,-0.055
2108,-0.260,-0.080
2109,-0.265,-0.075
2110,-0.270,-0.075
2111,-0.255,-0.070
2112,-0.255,-0.070
2113,-0.260,-0.080
2114,-0.255,-0.095
2115,-0.255,-0.090
2116,-0.265,-0.100
2117,-0.260,-0.095
2118,-0.250,-0.100
2119,-0.280,-0.100
2120,-0.265,-0.120
2121,-0.265,-0.130
2122,-0.275,-0.120
2123,-0.265,-0.125
2124,-0.265,-0.115
2125,-0.265,-0.125
2126,-0.275,-0.140
2127,-0.270,-0.135
2128,-0.280,-0.135
2129,-0.265,-0.140
2130,-0.255,-0.145
2131,-0.250,-0.135
2132,-0.275,-0.140
2133,-0.280,-0.150
2134,-0.275,-0.150
2135,-0.275,-0.145
2136,-0.270,-0.150
2137,-0.275,-0.150
2138,-0.260,-0.155
2139,-0.270,-0.155
2140,-0.265,-0.150
2141,-0.275,-0.145
2142,-0.255,-0.155
2143,-0.255,-0.140
2144,-0.260,-0.160
2145,-0.265,-0.160
2146,-0.270,-0.170
2147,-0.260,-0.160
2148,-0.250,-0.150
2149,-0.260,-0.160
2150,-0.255,-0.160
2151,-0.265,-0.180
2152,-0.260,-0.170
2153,-0.250,-0.160
2154,-0.240,-0.170
2155,-0.250,-0.165
2156,-0.255,-0.170
2157,-0.260,-0.180
2158,-0.260,-0.170
2159,-0.255,-0.150
2160,-0.250,-0.160
2161,-0.255,-0.165
2162,-0.245,-0.170
2163,-0.270,-0.180
2164,-0.275,-0.175
2165,-0.270,-0.165
2166,-0.255,-0.165
2167,-0.255,-0.170
2168,-0.260,-0.175
2169,-0.265,-0.185
2170,-0.260,-0.175
2171,-0.260,-0.175
2172,-0.255,-0.170
2173,-0.245,-0.170
2174,-0.245,-0.175
2175,-0.255,-0.185
2176,-0.260,-0.180
2177,-0.255,-0.175
2178,-0.255,-0.170
2179,-0.250,-0.175
2180,-0.250,-0.180
2181,-0.260,-0.195
2182,-0.265,-0.180
2183,-0.255,-0.165
2184,-0.240,-0.160
2185,-0.245,-0.170
2186,-0.245,-0.170
2187,-0.250,-0.175
2188,-0.255,-0.170
2189,-0.240,-0.150
2190,-0.225,-0.140
2191,-0.220,-0.110
2192,-0.220,-0.095
2193,-0.225,0.005
2194,-0.225,0.275
2195,-0.175,0.705
2196,-0.115,0.955
2197,-0.035,0.805
2198,0.155,0.500
2199,0.510,0.335
2200,0.880,0.265
2201,0.955,0.235
2202,0.685,0.175
2203,0.345,0.090
2204,0.185,-0.010
2205,0.155,-0.150
2206,0.175,-0.300
2207,0.190,-0.450
2208,0.195,-0.625
2209,0.195,-0.835
2210,0.185,-1.060
2211,0.190,-1.265
2212,0.190,-1.420
2213,0.200,-1.560
2214,0.195,-1.690
2215,0.165,-1.850
2216,0.140,-2.035
2217,0.135,-2.265
2218,0.130,-2.465
2219,0.130,-2.590
2220,0.125,-2.695
2221,0.085,-2.790
2222,0.045,-2.900
2223,-0.015,-3.005
2224,-0.075,-3.065
2225,-0.120,-3.095
2226,-0.170,-3.125
2227,-0.240,-3.150
2228,-0.320,-3.175
2229,-0.390,-3.195
2230,-0.480,-3.190
2231,-0.555,-3.180
2232,-0.580,-3.175
2233,-0.575,-3.160
2234,-0.540,-3.155
2235,-0.510,-3.145
2236,-0.485,-3.105
2237,-0.470,-3.030
2238,-0.450,-2.925
2239,-0.450,-2.810
2240,-0.440,-2.650
2241,-0.435,-2.480
2242,-0.415,-2.250
2243,-0.370,-1.990
2244,-0.340,-1.720
2245,-0.285,-1.430
2246,-0.265,-1.160
2247,-0.280,-0.915
2248,-0.285,-0.675
2249,-0.290,-0.425
2250,-0.285,-0.200
2251,-0.295,-0.010
2252,-0.305,0.175
2253,-0.315,0.370
2254,-0.305,0.530
2255,-0.285,0.645
2256,-0.270,0.720
2257,-0.250,0.780
2258,-0.260,0.815
2259,-0.260,0.850
2260,-0.265,0.905
2261,-0.260,0.950
2262,-0.240,0.985
2263,-0.235,1.020
2264,-0.245,1.055
2265,-0.245,1.065
2266,-0.250,1.115
2267,-0.250,1.155
2268,-0.225,1.195
2269,-0.220,1.235
2270,-0.235,1.240
2271,-0.250,1.265
2272,-0.245,1.320
2273,-0.230,1.355
2274,-0.220,1.400
2275,-0.215,1.430
2276,-0.215,1.445
2277,-0.240,1.485
2278,-0.225,1.530
2279,-0.210,1.565
2280,-0.195,1.615
2281,-0.200,1.645
2282,-0.205,1.670
2283,-0.230,1.705
2284,-0.215,1.740
2285,-0.205,1.785
2286,-0.195,1.810
2287,-0.190,1.855
2288,-0.185,1.875
2289,-0.185,1.890
2290,-0.175,1.915
2291,-0.165,1.965
2292,-0.160,1.990
2293,-0.155,1.995
2294,-0.160,2.010
2295,-0.160,2.000
2296,-0.160,2.020
2297,-0.130,2.025
2298,-0.130,2.040
2299,-0.120,2.020
2300,-0.125,1.990
2301,-0.120,1.980
2302,-0.110,1.960
2303,-0.095,1.945
2304,-0.080,1.915
2305,-0.075,1.870
2306,-0.090,1.825
2307,-0.095,1.775
2308,-0.100,1.730
2309,-0.070,1.685
2310,-0.070,1.625
2311,-0.080,1.560
2312,-0.085,1.480
2313,-0.080,1.410
2314,-0.075,1.355
2315,-0.050,1.300
2316,-0.045,1.215
2317,-0.055,1.160
2318,-0.060,1.075
2319,-0.065,0.985
2320,-0.075,0.940
2321,-0.060,0.880
2322,-0.060,0.815
2323,-0.060,0.750
2324,-0.070,0.675
2325,-0.080,0.615
2326,-0.100,0.570
2327,-0.100,0.520
2328,-0.085,0.480
2329,-0.095,0.430
2330,-0.110,0.380
2331,-0.125,0.335
2332,-0.140,0.310
2333,-0.135,0.290
2334,-0.140,0.250
2335,-0.130,0.225
2336,-0.140,0.195
2337,-0.155,0.165
2338,-0.170,0.150
2339,-0.165,0.135
2340,-0.165,0.130
2341,-0.165,0.115
2342,-0.170,0.090
2343,-0.180,0.070
2344,-0.175,0.070
2345,-0.180,0.070
2346,-0.175,0.070
2347,-0.175,0.055
2348,-0.185,0.050
2349,-0.195,0.040
2350,-0.200,0.045
2351,-0.190,0.040
2352,-0.185,0.060
2353,-0.190,0.045
2354,-0.200,0.040
2355,-0.215,0.030
2356,-0.225,0.030
2357,-0.210,0.050
2358,-0.200,0.040
2359,-0.205,0.040
2360,-0.215,0.035
2361,-0.205,0.025
2362,-0.220,0.035
2363,-0.210,0.040
2364,-0.200,0.050
2365,-0.210,0.055
2366,-0.210,0.045
2367,-0.215,0.040
2368,-0.220,0.045
2369,-0.210,0.060
2370,-0.195,0.065
2371,-0.210,0.075
2372,-0.215,0.080
2373,-0.235,0.060
2374,-0.240,0.075
2375,-0.230,0.090
2376,-0.220,0.090
2377,-0.220,0.095
2378,-0.230,0.065
2379,-0.245,0.060
2380,-0.250,0.075
2381,-0.245,0.085
2382,-0.240,0.075
2383,-0.225,0.070
2384,-0.230,0.050
2385,-0.225,0.030
2386,-0.235,0.030
2387,-0.220,0.030
2388,-0.210,0.020
2389,-0.220,-0.005
2390,-0.230,-0.025
2391,-0.230,-0.050
2392,-0.220,-0.050
2393,-0.210,-0.055
2394,-0.190,-0.070
2395,-0.195,-0.080
2396,-0.200,-0.095
2397,-0.230,-0.130
2398,-0.235,-0.130
2399,-0.230,-0.120
2400,-0.220,-0.120
2401,-0.220,-0.125
2402,-0.230,-0.130
2403,-0.230,-0.140
2404,-0.245,-0.120
2405,-0.240,-0.120
2406,-0.240,-0.120
2407,-0.245,-0.130
2408,-0.260,-0.140
2409,-0.280,-0.145
2410,-0.305,-0.150
2411,-0.285,-0.140
2412,-0.280,-0.140
2413,-0.280,-0.135
2414,-0.285,-0.155
2415,-0.295,-0.170
2416,-0.310,-0.155
2417,-0.295,-0.160
2418,-0.285,-0.145
2419,-0.275,-0.165
2420,-0.295,-0.165
2421,-0.310,-0.175
2422,-0.310,-0.165
2423,-0.315,-0.170
2424,-0.295,-0.165
2425,-0.295,-0.175
2426,-0.315,-0.185
2427,-0.320,-0.190
2428,-0.320,-0.185
2429,-0.305,-0.170
2430,-0.295,-0.165
2431,-0.300,-0.185
2432,-0.320,-0.195
2433,-0.315,-0.205
2434,-0.315,-0.190
2435,-0.305,-0.185
2436,-0.295,-0.180
2437,-0.305,-0.190
2438,-0.310,-0.185
2439,-0.310,-0.200
2440,-0.310,-0.190
2441,-0.300,-0.170
2442,-0.300,-0.175
2443,-0.300,-0.175
2444,-0.315,-0.195
2445,-0.320,-0.200
2446,-0.310,-0.190
2447,-0.305,-0.185
2448,-0.295,-0.180
2449,-0.295,-0.180
2450,-0.300,-0.195
2451,-0.295,-0.215
2452,-0.310,-0.190
2453,-0.305,-0.185
2454,-0.305,-0.180
2455,-0.295,-0.170
2456,-0.300,-0.185
2457,-0.300,-0.190
2458,-0.300,-0.195
2459,-0.295,-0.185
2460,-0.285,-0.175
2461,-0.285,-0.180
2462,-0.290,-0.195
2463,-0.310,-0.190
2464,-0.305,-0.180
2465,-0.290,-0.175
2466,-0.285,-0.175
2467,-0.290,-0.175
2468,-0.300,-0.190
2469,-0.290,-0.200
2470,-0.300,-0.195
2471,-0.285,-0.170
2472,-0.285,-0.175
2473,-0.285,-0.165
2474,-0.285,-0.185
2475,-0.280,-0.180
2476,-0.275,-0.165
2477,-0.270,-0.140
2478,-0.250,-0.120
2479,-0.250,-0.095
2480,-0.255,-0.055
2481,-0.250,0.080
2482,-0.230,0.355
2483,-0.190,0.680
2484,-0.130,0.730
2485,-0.030,0.515
2486,0.225,0.300
2487,0.585,0.205
2488,0.785,0.160
2489,0.650,0.110
2490,0.340,0.055
2491,0.150,-0.060
2492,0.110,-0.190
2493,0.120,-0.350
2494,0.155,-0.520
2495,0.155,-0.695
2496,0.155,-0.905
2497,0.150,-1.120
2498,0.155,-1.350
2499,0.160,-1.535
2500,0.165,-1.685
2501,0.155,-1.830
2502,0.145,-1.970
2503,0.125,-2.125
2504,0.135,-2.300
2505,0.135,-2.455
2506,0.135,-2.570
2507,0.125,-2.650
2508,0.110,-2.715
2509,0.075,-2.795
2510,0.040,-2.900
2511,-0.020,-2.980
2512,-0.075,-3.005
2513,-0.120,-3.025
2514,-0.170,-3.055
2515,-0.230,-3.090
2516,-0.285,-3.120
2517,-0.375,-3.135
2518,-0.465,-3.140
2519,-0.480,-3.140
2520,-0.460,-3.125
2521,-0.405,-3.105
2522,-0.370,-3.100
2523,-0.365,-3.070
2524,-0.365,-3.010
2525,-0.360,-2.915
2526,-0.365,-2.820
2527,-0.375,-2.725
2528,-0.380,-2.615
2529,-0.400,-2.500
2530,-0.395,-2.350
2531,-0.380,-2.170
2532,-0.355,-1.950
2533,-0.330,-1.705
2534,-0.325,-1.480
2535,-0.320,-1.240
2536,-0.330,-1.010
2537,-0.330,-0.760
2538,-0.320,-0.545
2539,-0.325,-0.325
2540,-0.335,-0.135
2541,-0.350,0.035
2542,-0.360,0.210
2543,-0.350,0.375
2544,-0.350,0.530
2545,-0.345,0.640
2546,-0.325,0.720
2547,-0.325,0.785
2548,-0.335,0.855
2549,-0.315,0.920
2550,-0.300,0.965
2551,-0.285,1.005
2552,-0.295,1.045
2553,-0.300,1.080
2554,-0.310,1.135
2555,-0.295,1.190
2556,-0.275,1.230
2557,-0.275,1.270
2558,-0.270,1.305
2559,-0.285,1.335
2560,-0.290,1.375
2561,-0.270,1.435
2562,-0.250,1.480
2563,-0.265,1.510
2564,-0.265,1.545
2565,-0.280,1.575
2566,-0.275,1.635
2567,-0.275,1.685
2568,-0.255,1.725
2569,-0.255,1.770
2570,-0.255,1.790
2571,-0.260,1.830
2572,-0.265,1.865
2573,-0.245,1.910
2574,-0.240,1.940
2575,-0.235,1.975
2576,-0.240,2.005
2577,-0.240,2.015
2578,-0.240,2.065
2579,-0.225,2.080
2580,-0.215,2.105
2581,-0.210,2.115
2582,-0.220,2.115
2583,-0.205,2.125
2584,-0.195,2.145
2585,-0.190,2.160
2586,-0.170,2.170
2587,-0.175,2.155
2588,-0.175,2.130
2589,-0.180,2.100
2590,-0.180,2.085
2591,-0.145,2.065
2592,-0.140,2.040
2593,-0.145,2.010
2594,-0.140,1.950
2595,-0.140,1.900
2596,-0.145,1.865
2597,-0.120,1.820
2598,-0.105,1.770
2599,-0.110,1.710
2600,-0.120,1.635
2601,-0.125,1.575
2602,-0.120,1.525
2603,-0.115,1.470
2604,-0.095,1.400
2605,-0.095,1.340
2606,-0.110,1.250
2607,-0.110,1.195
2608,-0.115,1.125
2609,-0.110,1.065
2610,-0.105,1.010
2611,-0.105,0.935
2612,-0.110,0.865
2613,-0.115,0.805
2614,-0.135,0.755
2615,-0.125,0.700
2616,-0.120,0.650
2617,-0.130,0.585
2618,-0.130,0.540
2619,-0.145,0.470
2620,-0.150,0.435
2621,-0.150,0.420
2622,-0.145,0.380
2623,-0.150,0.350
2624,-0.155,0.305
2625,-0.175,0.265
2626,-0.185,0.240
2627,-0.170,0.230
2628,-0.180,0.205
2629,-0.170,0.190
2630,-0.190,0.160
2631,-0.190,0.135
2632,-0.195,0.115
2633,-0.190,0.125
2634,-0.180,0.095
2635,-0.190,0.075
2636,-0.200,0.055
2637,-0.210,0.045
2638,-0.200,0.045
2639,-0.195,0.045
2640,-0.185,0.025
2641,-0.180,0.035
2642,-0.200,0.010
2643,-0.210,0.005
2644,-0.205,0.005
2645,-0.200,0.005
2646,-0.185,0.010
2647,-0.200,-0.010
2648,-0.205,-0.020
2649,-0.210,-0.015
2650,-0.205,-0.010
2651,-0.205,0.000
2652,-0.200,0.010
2653,-0.200,-0.010
2654,-0.210,-0.015
2655,-0.210,-0.020
2656,-0.220,-0.015
2657,-0.200,0.005
2658,-0.190,0.000
2659,-0.200,-0.005
2660,-0.210,0.000
2661,-0.215,-0.015
2662,-0.225,0.000
2663,-0.215,0.005
2664,-0.195,0.000
2665,-0.205,0.000
2666,-0.210,0.000
2667,-0.220,-0.010
2668,-0.220,0.005
2669,-0.210,0.015
2670,-0.200,0.010
2671,-0.210,0.020
2672,-0.215,0.000
2673,-0.215,-0.005
2674,-0.220,0.000
2675,-0.215,0.005
2676,-0.210,0.010
2677,-0.210,0.000
2678,-0.215,-0.005
2679,-0.215,-0.020
2680,-0.230,-0.010
2681,-0.215,-0.005
2682,-0.210,-0.010
2683,-0.215,-0.025
2684,-0.225,-0.020
2685,-0.230,-0.040
2686,-0.245,-0.030
2687,-0.225,-0.030
2688,-0.220,-0.035
2689,-0.225,-0.040
2690,-0.230,-0.055
2691,-0.245,-0.065
2692,-0.240,-0.065
2693,-0.235,-0.060
2694,-0.225,-0.060
2695,-0.225,-0.070
2696,-0.235,-0.080
2697,-0.240,-0.090
2698,-0.250,-0.080
2699,-0.240,-0.085
2700,-0.225,-0.085
2701,-0.230,-0.090
2702,-0.240,-0.105
2703,-0.245,-0.115
2704,-0.255,-0.110
2705,-0.250,-0.095
2706,-0.245,-0.100
2707,-0.245,-0.105
2708,-0.250,-0.120
2709,-0.260,-0.130
2710,-0.265,-0.125
2711,-0.245,-0.105
2712,-0.245,-0.110
2713,-0.245,-0.110
2714,-0.245,-0.130
2715,-0.270,-0.125
2716,-0.265,-0.105
2717,-0.260,-0.105
2718,-0.255,-0.100
2719,-0.260,-0.100
2720,-0.265,-0.105
2721,-0.275,-0.105
2722,-0.285,-0.105
2723,-0.270,-0.090
2724,-0.270,-0.090
2725,-0.270,-0.095
2726,-0.275,-0.105
2727,-0.270,-0.120
2728,-0.260,-0.120
2729,-0.245,-0.125
2730,-0.230,-0.120
2731,-0.230,-0.140
2732,-0.245,-0.160
2733,-0.245,-0.170
2734,-0.240,-0.175
2735,-0.225,-0.180
2736,-0.210,-0.190
2737,-0.215,-0.210
2738,-0.220,-0.225
2739,-0.215,-0.240
2740,-0.235,-0.225
2741,-0.235,-0.235
2742,-0.225,-0.240
2743,-0.230,-0.245
2744,-0.225,-0.260
2745,-0.235,-0.265
2746,-0.240,-0.240
2747,-0.230,-0.220
2748,-0.220,-0.215
2749,-0.240,-0.220
2750,-0.240,-0.225
2751,-0.260,-0.235
2752,-0.260,-0.220
2753,-0.270,-0.215
2754,-0.265,-0.215
2755,-0.255,-0.200
2756,-0.265,-0.225
2757,-0.280,-0.225
2758,-0.265,-0.215
2759,-0.260,-0.210
2760,-0.260,-0.210
2761,-0.260,-0.200
2762,-0.265,-0.215
2763,-0.270,-0.225
2764,-0.275,-0.200
2765,-0.255,-0.190
2766,-0.250,-0.190
2767,-0.260,-0.190
2768,-0.265,-0.195
2769,-0.270,-0.185
2770,-0.265,-0.170
2771,-0.255,-0.130
2772,-0.235,-0.080
2773,-0.225,0.020
2774,-0.220,0.220
2775,-0.195,0.550
2776,-0.160,0.825
2777,-0.105,0.760
2778,0.010,0.495
2779,0.310,0.310
2780,0.680,0.225
2781,0.825,0.195
2782,0.595,0.155
2783,0.295,0.135
2784,0.145,0.100
2785,0.130,0.055
2786,0.160,-0.010
2787,0.185,-0.125
2788,0.190,-0.250
2789,0.210,-0.425
2790,0.245,-0.620
2791,0.260,-0.855
2792,0.265,-1.090
2793,0.290,-1.340
2794,0.300,-1.580
2795,0.305,-1.785
2796,0.320,-1.975
2797,0.330,-2.100
2798,0.345,-2.220
2799,0.365,-2.325
2800,0.380,-2.400
2801,0.380,-2.505
2802,0.410,-2.610
2803,0.395,-2.735
2804,0.395,-2.860
2805,0.345,-2.925
2806,0.285,-2.970
2807,0.230,-3.015
2808,0.195,-3.055
2809,0.155,-3.105
2810,0.065,-3.145
2811,-0.035,-3.165
2812,-0.130,-3.165
2813,-0.160,-3.165
2814,-0.140,-3.160
2815,-0.130,-3.170
2816,-0.135,-3.170
2817,-0.140,-3.145
2818,-0.165,-3.095
2819,-0.170,-3.035
2820,-0.190,-2.960
2821,-0.225,-2.870
2822,-0.285,-2.770
2823,-0.320,-2.640
2824,-0.345,-2.490
2825,-0.345,-2.335
2826,-0.350,-2.130
2827,-0.360,-1.900
2828,-0.370,-1.670
2829,-0.400,-1.405
2830,-0.405,-1.165
2831,-0.395,-0.915
2832,-0.370,-0.675
2833,-0.370,-0.430
2834,-0.365,-0.225
2835,-0.395,-0.040
2836,-0.390,0.140
2837,-0.410,0.320
2838,-0.395,0.480
2839,-0.400,0.630
2840,-0.390,0.725
2841,-0.400,0.790
2842,-0.395,0.870
2843,-0.380,0.935
2844,-0.350,0.990
2845,-0.335,1.035
2846,-0.335,1.075
2847,-0.340,1.115
2848,-0.350,1.165
2849,-0.335,1.220
2850,-0.315,1.270
2851,-0.325,1.310
2852,-0.330,1.345
2853,-0.330,1.385
2854,-0.325,1.450
2855,-0.315,1.500
2856,-0.305,1.545
2857,-0.315,1.580
2858,-0.320,1.630
2859,-0.320,1.660
2860,-0.320,1.720
2861,-0.320,1.770
2862,-0.305,1.815
2863,-0.295,1.850
2864,-0.315,1.885
2865,-0.300,1.915
2866,-0.295,1.970
2867,-0.280,2.010
2868,-0.275,2.045
2869,-0.290,2.070
2870,-0.285,2.090
2871,-0.300,2.125
2872,-0.295,2.160
2873,-0.280,2.180
2874,-0.260,2.200
2875,-0.270,2.200
2876,-0.270,2.195
2877,-0.270,2.205
2878,-0.255,2.210
2879,-0.240,2.210
2880,-0.225,2.205
2881,-0.215,2.190
2882,-0.205,2.155
2883,-0.210,2.120
2884,-0.210,2.095
2885,-0.200,2.070
2886,-0.180,2.025
2887,-0.165,1.985
2888,-0.165,1.930
2889,-0.165,1.880
2890,-0.170,1.815
2891,-0.150,1.760
2892,-0.145,1.715
2893,-0.145,1.640
2894,-0.135,1.570
2895,-0.145,1.490
2896,-0.140,1.420
2897,-0.145,1.360
2898,-0.125,1.285
2899,-0.130,1.200
2900,-0.140,1.110
2901,-0.145,1.040
2902,-0.160,0.960
2903,-0.150,0.900
2904,-0.135,0.840
2905,-0.145,0.770
2906,-0.155,0.695
2907,-0.165,0.625
2908,-0.170,0.580
2909,-0.160,0.520
2910,-0.145,0.475
2911,-0.160,0.425
2912,-0.170,0.375
2913,-0.190,0.315
2914,-0.190,0.285
2915,-0.180,0.255
2916,-0.175,0.220
2917,-0.170,0.185
2918,-0.195,0.155
2919,-0.210,0.110
2920,-0.215,0.110
2921,-0.210,0.095
2922,-0.210,0.070
2923,-0.220,0.055
2924,-0.225,0.025
2925,-0.235,0.000
2926,-0.235,0.000
2927,-0.220,0.000
2928,-0.215,-0.005
2929,-0.220,-0.015
2930,-0.215,-0.030
2931,-0.220,-0.040
2932,-0.230,-0.055
2933,-0.235,-0.035
2934,-0.220,-0.040
2935,-0.230,-0.040
2936,-0.245,-0.065
2937,-0.250,-0.070
2938,-0.240,-0.075
2939,-0.230,-0.065
2940,-0.215,-0.060
2941,-0.230,-0.075
2942,-0.240,-0.075
2943,-0.245,-0.080
2944,-0.245,-0.075
2945,-0.230,-0.065
2946,-0.225,-0.060
2947,-0.225,-0.055
2948,-0.235,-0.070
2949,-0.230,-0.085
2950,-0.230,-0.070
2951,-0.225,-0.060
2952,-0.205,-0.055
2953,-0.215,-0.040
2954,-0.225,-0.060
2955,-0.240,-0.065
2956,-0.250,-0.070
2957,-0.235,-0.040
2958,-0.215,-0.035
2959,-0.225,-0.050
2960,-0.225,-0.040
2961,-0.235,-0.055
2962,-0.250,-0.035
2963,-0.245,-0.020
2964,-0.235,-0.035
2965,-0.240,-0.025
2966,-0.260,-0.035
2967,-0.255,-0.035
2968,-0.250,-0.035
2969,-0.240,-0.025
2970,-0.225,-0.030
2971,-0.240,-0.040
2972,-0.250,-0.050
2973,-0.260,-0.055
2974,-0.265,-0.060
2975,-0.255,-0.040
2976,-0.235,-0.050
2977,-0.260,-0.050
2978,-0.260,-0.065
2979,-0.260,-0.075
2980,-0.275,-0.075
2981,-0.255,-0.070
2982,-0.255,-0.065
2983,-0.270,-0.090
2984,-0.280,-0.105
2985,-0.275,-0.110
2986,-0.285,-0.120
2987,-0.280,-0.105
2988,-0.265,-0.110
2989,-0.285,-0.115
2990,-0.285,-0.125
2991,-0.295,-0.130
2992,-0.290,-0.130
2993,-0.285,-0.120
2994,-0.265,-0.125
2995,-0.275,-0.135
2996,-0.275,-0.150
2997,-0.290,-0.165
2998,-0.280,-0.160
2999,-0.270,-0.150
3000,-0.270,-0.155
3001,-0.275,-0.175
3002,-0.280,-0.190
3003,-0.300,-0.190
3004,-0.305,-0.180
3005,-0.305,-0.175
3006,-0.280,-0.180
3007,-0.295,-0.200
3008,-0.285,-0.210
3009,-0.300,-0.205
3010,-0.315,-0.210
3011,-0.310,-0.200
3012,-0.300,-0.205
3013,-0.290,-0.200
3014,-0.295,-0.215
3015,-0.305,-0.225
3016,-0.310,-0.220
3017,-0.300,-0.205
3018,-0.295,-0.205
3019,-0.290,-0.210
3020,-0.285,-0.230
3021,-0.300,-0.225
3022,-0.295,-0.230
3023,-0.300,-0.215
3024,-0.280,-0.220
3025,-0.280,-0.215
3026,-0.285,-0.215
3027,-0.310,-0.240
3028,-0.300,-0.230
3029,-0.295,-0.220
3030,-0.265,-0.210
3031,-0.270,-0.230
3032,-0.290,-0.235
3033,-0.300,-0.240
3034,-0.285,-0.235
3035,-0.275,-0.230
3036,-0.280,-0.225
3037,-0.280,-0.235
3038,-0.305,-0.230
3039,-0.300,-0.235
3040,-0.300,-0.220
3041,-0.305,-0.210
3042,-0.285,-0.200
3043,-0.285,-0.195
3044,-0.315,-0.195
3045,-0.320,-0.200
3046,-0.315,-0.185
3047,-0.305,-0.170
3048,-0.285,-0.170
3049,-0.290,-0.170
3050,-0.295,-0.190
3051,-0.290,-0.190
3052,-0.310,-0.180
3053,-0.285,-0.175
3054,-0.270,-0.165
3055,-0.270,-0.175
3056,-0.260,-0.195
3057,-0.255,-0.210
3058,-0.255,-0.215
3059,-0.235,-0.195
3060,-0.225,-0.200
3061,-0.225,-0.185
3062,-0.220,-0.185
3063,-0.215,-0.135
3064,-0.190,0.000
3065,-0.170,0.270
3066,-0.145,0.665
3067,-0.125,0.835
3068,-0.085,0.660
3069,0.060,0.370
3070,0.410,0.215
3071,0.810,0.155
3072,0.940,0.090
3073,0.700,0.020
3074,0.365,-0.070
3075,0.180,-0.135
3076,0.140,-0.250
3077,0.170,-0.385
3078,0.180,-0.540
3079,0.155,-0.705
3080,0.120,-0.905
3081,0.115,-1.130
3082,0.110,-1.320
3083,0.145,-1.465
3084,0.160,-1.585
3085,0.150,-1.705
3086,0.130,-1.865
3087,0.125,-2.045
3088,0.120,-2.225
3089,0.145,-2.400
3090,0.165,-2.560
3091,0.150,-2.680
3092,0.140,-2.790
3093,0.100,-2.905
3094,0.080,-2.980
3095,0.080,-3.055
3096,0.055,-3.105
3097,0.000,-3.140
3098,-0.015,-3.185
3099,-0.080,-3.220
3100,-0.135,-3.240
3101,-0.210,-3.235
3102,-0.280,-3.255
3103,-0.370,-3.255
3104,-0.415,-3.265
3105,-0.410,-3.265
3106,-0.385,-3.250
3107,-0.350,-3.205
3108,-0.330,-3.150
3109,-0.345,-3.080
3110,-0.370,-2.985
3111,-0.405,-2.860
3112,-0.420,-2.700
3113,-0.425,-2.545
3114,-0.410,-2.330
3115,-0.395,-2.120
3116,-0.355,-1.910
3117,-0.340,-1.680
3118,-0.315,-1.430
3119,-0.280,-1.180
3120,-0.275,-0.955
3121,-0.305,-0.755
3122,-0.320,-0.560
3123,-0.340,-0.360
3124,-0.350,-0.160
3125,-0.345,0.020
3126,-0.320,0.180
3127,-0.330,0.325
3128,-0.320,0.430
3129,-0.320,0.545
3130,-0.310,0.620
3131,-0.285,0.700
3132,-0.275,0.745
3133,-0.265,0.795
3134,-0.275,0.820
3135,-0.265,0.865
3136,-0.260,0.925
3137,-0.255,0.965
3138,-0.240,0.995
3139,-0.245,1.030
3140,-0.250,1.055
3141,-0.235,1.080
3142,-0.245,1.125
3143,-0.230,1.170
3144,-0.210,1.215
3145,-0.205,1.245
3146,-0.215,1.275
3147,-0.220,1.300
3148,-0.215,1.360
3149,-0.210,1.400
3150,-0.210,1.435
3151,-0.200,1.475
3152,-0.200,1.500
3153,-0.205,1.530
3154,-0.200,1.585
3155,-0.205,1.640
3156,-0.185,1.675
3157,-0.175,1.690
3158,-0.170,1.720
3159,-0.160,1.745
3160,-0.160,1.785
3161,-0.135,1.815
3162,-0.120,1.845
3163,-0.125,1.870
3164,-0.140,1.880
3165,-0.140,1.885
3166,-0.130,1.915
3167,-0.110,1.935
3168,-0.110,1.955
3169,-0.105,1.950
3170,-0.100,1.940
3171,-0.100,1.950
3172,-0.105,1.945
3173,-0.090,1.955
3174,-0.065,1.930
3175,-0.075,1.915
3176,-0.060,1.880
3177,-0.065,1.850
3178,-0.070,1.825
3179,-0.050,1.790
3180,-0.040,1.745
3181,-0.050,1.700
3182,-0.040,1.645
3183,-0.050,1.595
3184,-0.050,1.545
3185,-0.035,1.495
3186,-0.030,1.445
3187,-0.035,1.365
3188,-0.060,1.305
3189,-0.065,1.220
3190,-0.065,1.160
3191,-0.060,1.100
3192,-0.040,1.040
3193,-0.060,0.960
3194,-0.070,0.880
3195,-0.075,0.810
3196,-0.100,0.750
3197,-0.100,0.710
3198,-0.100,0.655
3199,-0.115,0.580
3200,-0.120,0.530
3201,-0.135,0.460
3202,-0.145,0.420
3203,-0.135,0.375
3204,-0.135,0.325
3205,-0.145,0.295
3206,-0.160,0.250
3207,-0.165,0.205
3208,-0.165,0.195
3209,-0.165,0.165
3210,-0.170,0.145
3211,-0.160,0.115
3212,-0.195,0.090
3213,-0.180,0.065
3214,-0.200,0.065
3215,-0.195,0.055
3216,-0.190,0.035
3217,-0.200,0.000
3218,-0.215,0.000
3219,-0.220,-0.015
3220,-0.225,-0.025
3221,-0.220,-0.025
3222,-0.205,-0.025
3223,-0.205,-0.030
3224,-0.205,-0.055
3225,-0.220,-0.065
3226,-0.220,-0.070
3227,-0.220,-0.045
3228,-0.200,-0.060
3229,-0.210,-0.065
3230,-0.215,-0.075
3231,-0.220,-0.075
3232,-0.220,-0.070
3233,-0.220,-0.050
3234,-0.210,-0.055
3235,-0.210,-0.060
3236,-0.230,-0.060
3237,-0.235,-0.080
3238,-0.235,-0.055
3239,-0.225,-0.055
3240,-0.220,-0.055
3241,-0.220,-0.050
3242,-0.225,-0.060
3243,-0.245,-0.050
3244,-0.245,-0.050
3245,-0.235,-0.040
3246,-0.235,-0.045
3247,-0.220,-0.030
3248,-0.225,-0.055
3249,-0.220,-0.055
3250,-0.235,-0.045
3251,-0.225,-0.025
3252,-0.220,-0.025
3253,-0.245,-0.035
3254,-0.240,-0.040
3255,-0.255,-0.055
3256,-0.260,-0.055
3257,-0.250,-0.035
3258,-0.230,-0.030
3259,-0.225,-0.040
3260,-0.250,-0.045
3261,-0.255,-0.055
3262,-0.245,-0.050
3263,-0.230,-0.040
3264,-0.225,-0.035
3265,-0.235,-0.045
3266,-0.245,-0.055
3267,-0.250,-0.070
3268,-0.255,-0.060
3269,-0.260,-0.055
3270,-0.245,-0.055
3271,-0.250,-0.070
3272,-0.260,-0.090
3273,-0.290,-0.090
3274,-0.285,-0.085
3275,-0.275,-0.075
3276,-0.265,-0.080
3277,-0.275,-0.090
3278,-0.280,-0.100
3279,-0.285,-0.110
3280,-0.285,-0.110
3281,-0.280,-0.105
3282,-0.265,-0.110
3283,-0.270,-0.120
3284,-0.280,-0.135
3285,-0.300,-0.140
3286,-0.305,-0.135
3287,-0.300,-0.125
3288,-0.295,-0.140
3289,-0.285,-0.145
3290,-0.285,-0.155
3291,-0.290,-0.170
3292,-0.295,-0.155
3293,-0.300,-0.160
3294,-0.290,-0.155
3295,-0.295,-0.160
3296,-0.310,-0.175
3297,-0.305,-0.170
3298,-0.325,-0.170
3299,-0.310,-0.175
3300,-0.290,-0.175
3301,-0.305,-0.175
3302,-0.310,-0.195
3303,-0.325,-0.200
3304,-0.330,-0.180
3305,-0.315,-0.185
3306,-0.300,-0.185
3307,-0.300,-0.195
3308,-0.315,-0.215
3309,-0.320,-0.210
3310,-0.330,-0.190
3311,-0.320,-0.190
3312,-0.305,-0.205
3313,-0.305,-0.200
3314,-0.325,-0.220
3315,-0.325,-0.230
3316,-0.325,-0.215
3317,-0.320,-0.195
3318,-0.310,-0.205
3319,-0.315,-0.210
3320,-0.320,-0.230
3321,-0.320,-0.235
3322,-0.335,-0.220
3323,-0.325,-0.210
3324,-0.320,-0.215
3325,-0.325,-0.210
3326,-0.330,-0.220
3327,-0.340,-0.235
3328,-0.335,-0.220
3329,-0.335,-0.215
3330,-0.325,-0.215
3331,-0.320,-0.215
3332,-0.340,-0.235
3333,-0.350,-0.240
3334,-0.350,-0.225
3335,-0.345,-0.215
3336,-0.335,-0.220
3337,-0.350,-0.215
3338,-0.350,-0.235
3339,-0.355,-0.240
3340,-0.355,-0.235
3341,-0.355,-0.210
3342,-0.335,-0.225
3343,-0.350,-0.215
3344,-0.350,-0.230
3345,-0.365,-0.225
3346,-0.360,-0.225
3347,-0.355,-0.215
3348,-0.345,-0.215
3349,-0.345,-0.220
3350,-0.355,-0.220
3351,-0.355,-0.220
3352,-0.355,-0.210
3353,-0.345,-0.190
3354,-0.325,-0.185
3355,-0.325,-0.185
3356,-0.335,-0.175
3357,-0.345,-0.175
3358,-0.335,-0.160
3359,-0.335,-0.145
3360,-0.310,-0.145
3361,-0.330,-0.145
3362,-0.325,-0.155
3363,-0.315,-0.140
3364,-0.305,-0.085
3365,-0.290,0.080
3366,-0.240,0.415
3367,-0.225,0.745
3368,-0.185,0.745
3369,-0.100,0.515
3370,0.110,0.310
3371,0.475,0.245
3372,0.760,0.200
3373,0.730,0.125
3374,0.445,0.045
3375,0.180,-0.020
3376,0.080,-0.110
3377,0.085,-0.220
3378,0.110,-0.365
3379,0.110,-0.540
3380,0.100,-0.730
3381,0.100,-0.915
3382,0.100,-1.125
3383,0.115,-1.285
3384,0.130,-1.425
3385,0.130,-1.580
3386,0.090,-1.730
3387,0.060,-1.890
3388,0.040,-2.050
3389,0.055,-2.235
3390,0.045,-2.440
3391,0.050,-2.620
3392,0.030,-2.740
3393,-0.005,-2.835
3394,-0.030,-2.940
3395,-0.065,-3.025
3396,-0.075,-3.095
3397,-0.140,-3.145
3398,-0.200,-3.185
3399,-0.235,-3.225
3400,-0.280,-3.245
3401,-0.325,-3.235
3402,-0.375,-3.240
3403,-0.450,-3.255
3404,-0.525,-3.270
3405,-0.580,-3.270
3406,-0.570,-3.250
3407,-0.530,-3.235
3408,-0.470,-3.205
3409,-0.440,-3.190
3410,-0.425,-3.150
3411,-0.415,-3.075
3412,-0.425,-2.960
3413,-0.440,-2.840
3414,-0.440,-2.730
3415,-0.450,-2.565
3416,-0.465,-2.415
3417,-0.465,-2.220
3418,-0.440,-2.015
3419,-0.410,-1.800
3420,-0.370,-1.580
3421,-0.350,-1.325
3422,-0.355,-1.115
3423,-0.385,-0.905
3424,-0.400,-0.685
3425,-0.410,-0.480
3426,-0.405,-0.295
3427,-0.415,-0.115
3428,-0.435,0.035
3429,-0.450,0.195
3430,-0.450,0.335
3431,-0.440,0.475
3432,-0.430,0.565
3433,-0.435,0.635
3434,-0.430,0.700
3435,-0.440,0.740
3436,-0.420,0.795
3437,-0.410,0.850
3438,-0.395,0.890
3439,-0.390,0.940
3440,-0.395,0.950
3441,-0.400,0.995
3442,-0.395,1.045
3443,-0.375,1.090
3444,-0.375,1.105
3445,-0.375,1.135
3446,-0.380,1.165
3447,-0.375,1.180
3448,-0.370,1.235
3449,-0.360,1.270
3450,-0.340,1.305
3451,-0.355,1.330
3452,-0.360,1.355
3453,-0.370,1.385
3454,-0.345,1.425
3455,-0.345,1.480
3456,-0.330,1.495
3457,-0.335,1.530
3458,-0.330,1.540
3459,-0.340,1.565
3460,-0.330,1.610
3461,-0.340,1.645
3462,-0.330,1.685
3463,-0.320,1.705
3464,-0.310,1.730
3465,-0.325,1.745
3466,-0.325,1.790
3467,-0.305,1.825
3468,-0.290,1.850
3469,-0.290,1.875
3470,-0.295,1.875
3471,-0.300,1.910
3472,-0.295,1.935
3473,-0.290,1.955
3474,-0.260,1.970
3475,-0.265,1.975
3476,-0.275,1.975
3477,-0.275,1.975
3478,-0.275,1.990
3479,-0.255,1.995
3480,-0.230,1.995
3481,-0.245,1.990
3482,-0.250,1.970
3483,-0.250,1.945
3484,-0.240,1.930
3485,-0.230,1.920
3486,-0.225,1.890
3487,-0.225,1.855
3488,-0.235,1.810
3489,-0.225,1.765
3490,-0.210,1.730
3491,-0.210,1.695
3492,-0.205,1.655
3493,-0.200,1.595
3494,-0.205,1.525
3495,-0.215,1.465
3496,-0.205,1.425
3497,-0.195,1.355
3498,-0.200,1.305
3499,-0.205,1.230
3500,-0.210,1.155
3501,-0.215,1.095
3502,-0.230,1.055
3503,-0.210,1.000
3504,-0.195,0.955
3505,-0.210,0.895
3506,-0.225,0.820
3507,-0.225,0.760
3508,-0.225,0.705
3509,-0.230,0.660
3510,-0.235,0.605
3511,-0.240,0.555
3512,-0.245,0.490
3513,-0.255,0.440
3514,-0.255,0.415
3515,-0.255,0.385
3516,-0.250,0.350
3517,-0.255,0.300
3518,-0.270,0.260
3519,-0.290,0.215
3520,-0.285,0.195
3521,-0.285,0.185
3522,-0.280,0.155
3523,-0.295,0.120
3524,-0.300,0.085
3525,-0.315,0.065
3526,-0.325,0.055
3527,-0.310,0.050
3528,-0.300,0.030
3529,-0.300,0.015
3530,-0.310,-0.010
3531,-0.330,-0.015
3532,-0.330,-0.025
3533,-0.320,-0.025
3534,-0.325,-0.030
3535,-0.315,-0.040
3536,-0.325,-0.060
3537,-0.335,-0.075
3538,-0.340,-0.070
3539,-0.335,-0.060
3540,-0.325,-0.075
3541,-0.325,-0.075
3542,-0.325,-0.075
3543,-0.340,-0.095
3544,-0.340,-0.075
3545,-0.340,-0.060
3546,-0.330,-0.070
3547,-0.330,-0.065
3548,-0.335,-0.075
3549,-0.335,-0.070
3550,-0.340,-0.065
3551,-0.335,-0.060
3552,-0.335,-0.055
3553,-0.330,-0.055
3554,-0.335,-0.060
3555,-0.335,-0.070
3556,-0.345,-0.060
3557,-0.340,-0.030
3558,-0.320,-0.040
3559,-0.310,-0.045
3560,-0.330,-0.045
3561,-0.350,-0.060
3562,-0.340,-0.035
3563,-0.330,-0.025
3564,-0.335,-0.030
3565,-0.315,-0.025
3566,-0.320,-0.025
3567,-0.335,-0.040
3568,-0.330,-0.020
3569,-0.330,-0.010
3570,-0.325,-0.025
3571,-0.320,-0.035
3572,-0.330,-0.030
3573,-0.330,-0.030
3574,-0.345,-0.025
3575,-0.335,-0.015
3576,-0.330,-0.030
3577,-0.335,-0.040
3578,-0.340,-0.040
3579,-0.340,-0.050
3580,-0.340,-0.040
3581,-0.350,-0.035
3582,-0.340,-0.040
3583,-0.340,-0.045
3584,-0.350,-0.065
3585,-0.355,-0.070
3586,-0.345,-0.085
3587,-0.340,-0.060
3588,-0.335,-0.070
3589,-0.350,-0.085
3590,-0.355,-0.100
3591,-0.355,-0.105
3592,-0.380,-0.105
3593,-0.370,-0.105
3594,-0.355,-0.095
3595,-0.350,-0.115
3596,-0.370,-0.115
3597,-0.370,-0.135
3598,-0.360,-0.115
3599,-0.360,-0.125
