0,-0.150,0.200
1,-0.150,0.200
2,-0.150,0.200
3,-0.150,0.200
4,-0.150,0.200
5,-0.150,0.200
6,-0.150,0.200
7,-0.150,0.200
8,-0.145,0.200
9,-0.135,0.215
10,-0.110,0.235
11,-0.080,0.240
12,-0.040,0.240
13,0.000,0.245
14,0.125,0.265
15,0.485,0.335
16,0.925,0.460
17,0.985,0.775
18,0.625,1.030
19,0.250,0.935
20,0.095,0.665
21,0.100,0.485
22,0.120,0.445
23,0.110,0.425
24,0.080,0.395
25,0.050,0.355
26,0.040,0.335
27,0.035,0.330
28,0.045,0.335
29,0.060,0.300
30,0.060,0.305
31,0.045,0.260
32,0.015,0.235
33,0.010,0.210
34,0.000,0.195
35,0.000,0.165
36,-0.020,0.165
37,-0.035,0.135
38,-0.065,0.115
39,-0.075,0.110
40,-0.110,0.110
41,-0.145,0.105
42,-0.180,0.085
43,-0.225,0.065
44,-0.270,0.035
45,-0.310,0.040
46,-0.380,0.030
47,-0.455,0.020
48,-0.510,-0.005
49,-0.565,-0.020
50,-0.620,-0.040
51,-0.665,-0.030
52,-0.705,-0.035
53,-0.750,-0.045
54,-0.790,-0.070
55,-0.830,-0.105
56,-0.860,-0.150
57,-0.880,-0.180
58,-0.885,-0.220
59,-0.900,-0.255
60,-0.900,-0.300
61,-0.895,-0.330
62,-0.885,-0.345
63,-0.870,-0.370
64,-0.855,-0.385
65,-0.845,-0.405
66,-0.825,-0.435
67,-0.820,-0.475
68,-0.800,-0.480
69,-0.770,-0.500
70,-0.720,-0.510
71,-0.655,-0.535
72,-0.610,-0.565
73,-0.580,-0.580
74,-0.550,-0.565
75,-0.490,-0.530
76,-0.445,-0.485
77,-0.380,-0.445
78,-0.345,-0.400
79,-0.310,-0.360
80,-0.300,-0.305
81,-0.270,-0.245
82,-0.235,-0.180
83,-0.225,-0.125
84,-0.215,-0.085
85,-0.220,-0.055
86,-0.225,-0.015
87,-0.220,0.020
88,-0.210,0.055
89,-0.200,0.085
90,-0.180,0.095
91,-0.190,0.095
92,-0.205,0.095
93,-0.205,0.110
94,-0.210,0.145
95,-0.205,0.155
96,-0.200,0.175
97,-0.200,0.185
98,-0.190,0.215
99,-0.175,0.245
100,-0.165,0.275
101,-0.130,0.295
102,-0.145,0.310
103,-0.125,0.315
104,-0.130,0.320
105,-0.115,0.335
106,-0.095,0.350
107,-0.085,0.345
108,-0.080,0.340
109,-0.080,0.335
110,-0.085,0.330
111,-0.075,0.345
112,-0.065,0.365
113,-0.050,0.360
114,-0.045,0.365
115,-0.050,0.350
116,-0.050,0.350
117,-0.045,0.360
118,-0.035,0.370
119,-0.015,0.385
120,-0.020,0.380
121,-0.035,0.375
122,-0.025,0.365
123,-0.030,0.370
124,-0.010,0.390
125,-0.010,0.390
126,0.005,0.395
127,-0.005,0.395
128,-0.005,0.385
129,-0.005,0.400
130,0.010,0.415
131,0.020,0.415
132,0.025,0.420
133,0.020,0.410
134,0.015,0.410
135,0.020,0.430
136,0.035,0.435
137,0.050,0.440
138,0.040,0.440
139,0.045,0.440
140,0.040,0.430
141,0.035,0.445
142,0.055,0.465
143,0.065,0.470
144,0.060,0.465
145,0.055,0.465
146,0.055,0.465
147,0.065,0.470
148,0.080,0.490
149,0.070,0.495
150,0.090,0.500
151,0.080,0.485
152,0.070,0.490
153,0.075,0.505
154,0.085,0.520
155,0.100,0.520
156,0.095,0.520
157,0.090,0.520
158,0.080,0.515
159,0.080,0.530
160,0.095,0.535
161,0.095,0.550
162,0.090,0.545
163,0.090,0.535
164,0.090,0.535
165,0.090,0.540
166,0.075,0.545
167,0.085,0.560
168,0.105,0.535
169,0.080,0.540
170,0.065,0.520
171,0.065,0.525
172,0.070,0.525
173,0.075,0.535
174,0.065,0.520
175,0.055,0.510
176,0.035,0.500
177,0.035,0.505
178,0.035,0.515
179,0.035,0.495
180,0.025,0.485
181,0.010,0.465
182,0.000,0.455
183,-0.020,0.465
184,-0.010,0.465
185,-0.015,0.470
186,-0.020,0.450
187,-0.050,0.440
188,-0.060,0.430
189,-0.060,0.425
190,-0.065,0.425
191,-0.065,0.420
192,-0.080,0.400
193,-0.095,0.380
194,-0.100,0.370
195,-0.095,0.375
196,-0.100,0.380
197,-0.090,0.375
198,-0.100,0.365
199,-0.110,0.345
200,-0.135,0.340
201,-0.135,0.330
202,-0.125,0.335
203,-0.120,0.330
204,-0.115,0.330
205,-0.135,0.310
206,-0.150,0.300
207,-0.145,0.295
208,-0.145,0.300
209,-0.135,0.305
210,-0.135,0.295
211,-0.145,0.290
212,-0.155,0.280
213,-0.150,0.285
214,-0.140,0.295
215,-0.140,0.290
216,-0.145,0.280
217,-0.150,0.280
218,-0.150,0.270
219,-0.170,0.290
220,-0.155,0.275
221,-0.145,0.285
222,-0.135,0.265
223,-0.150,0.275
224,-0.160,0.265
225,-0.155,0.275
226,-0.160,0.290
227,-0.135,0.275
228,-0.145,0.265
229,-0.150,0.260
230,-0.165,0.260
231,-0.155,0.260
232,-0.140,0.275
233,-0.135,0.270
234,-0.155,0.255
235,-0.150,0.260
236,-0.165,0.255
237,-0.165,0.250
238,-0.160,0.265
239,-0.150,0.270
240,-0.150,0.265
241,-0.150,0.245
242,-0.150,0.250
243,-0.175,0.255
244,-0.165,0.265
245,-0.155,0.265
246,-0.160,0.265
247,-0.170,0.265
248,-0.175,0.255
249,-0.185,0.255
250,-0.160,0.275
251,-0.160,0.265
252,-0.165,0.260
253,-0.180,0.250
254,-0.190,0.250
255,-0.195,0.255
256,-0.180,0.265
257,-0.180,0.260
258,-0.185,0.250
259,-0.195,0.245
260,-0.210,0.230
261,-0.205,0.245
262,-0.200,0.260
263,-0.200,0.245
264,-0.205,0.240
265,-0.220,0.225
266,-0.240,0.230
267,-0.230,0.235
268,-0.220,0.240
269,-0.215,0.240
270,-0.225,0.240
271,-0.225,0.230
272,-0.245,0.220
273,-0.235,0.230
274,-0.230,0.230
275,-0.215,0.225
276,-0.215,0.235
277,-0.235,0.205
278,-0.245,0.210
279,-0.235,0.220
280,-0.230,0.225
281,-0.225,0.225
282,-0.235,0.230
283,-0.250,0.210
284,-0.260,0.205
285,-0.250,0.215
286,-0.245,0.215
287,-0.230,0.235
288,-0.245,0.210
289,-0.250,0.205
290,-0.250,0.195
291,-0.255,0.215
292,-0.250,0.220
293,-0.245,0.220
294,-0.260,0.200
295,-0.250,0.200
296,-0.280,0.205
297,-0.260,0.210
298,-0.255,0.215
299,-0.255,0.220
300,-0.255,0.220
301,-0.250,0.215
302,-0.270,0.195
303,-0.260,0.215
304,-0.255,0.225
305,-0.240,0.225
306,-0.235,0.220
307,-0.230,0.215
308,-0.210,0.215
309,-0.205,0.230
310,-0.135,0.245
311,-0.040,0.275
312,0.205,0.315
313,0.630,0.415
314,0.845,0.695
315,0.630,1.000
316,0.260,0.980
317,0.060,0.710
318,0.045,0.495
319,0.050,0.420
320,0.030,0.415
321,0.005,0.410
322,-0.010,0.380
323,-0.040,0.370
324,-0.035,0.365
325,-0.040,0.340
326,-0.050,0.320
327,-0.045,0.320
328,-0.060,0.310
329,-0.055,0.280
330,-0.070,0.255
331,-0.090,0.210
332,-0.115,0.200
333,-0.120,0.185
334,-0.130,0.190
335,-0.135,0.160
336,-0.170,0.145
337,-0.220,0.120
338,-0.265,0.105
339,-0.300,0.090
340,-0.330,0.080
341,-0.350,0.045
342,-0.400,0.030
343,-0.465,0.000
344,-0.565,-0.015
345,-0.630,-0.025
346,-0.670,-0.045
347,-0.710,-0.040
348,-0.750,-0.055
349,-0.810,-0.085
350,-0.870,-0.110
351,-0.905,-0.130
352,-0.920,-0.150
353,-0.925,-0.195
354,-0.930,-0.260
355,-0.935,-0.295
356,-0.945,-0.335
357,-0.935,-0.340
358,-0.915,-0.355
359,-0.905,-0.395
360,-0.895,-0.440
361,-0.905,-0.470
362,-0.910,-0.510
363,-0.880,-0.525
364,-0.865,-0.545
365,-0.840,-0.580
366,-0.800,-0.625
367,-0.750,-0.650
368,-0.705,-0.670
369,-0.660,-0.635
370,-0.610,-0.600
371,-0.565,-0.570
372,-0.520,-0.535
373,-0.480,-0.505
374,-0.455,-0.445
375,-0.405,-0.380
376,-0.385,-0.330
377,-0.350,-0.270
378,-0.330,-0.225
379,-0.325,-0.180
380,-0.325,-0.150
381,-0.320,-0.100
382,-0.295,-0.065
383,-0.285,-0.040
384,-0.275,-0.005
385,-0.265,-0.010
386,-0.260,0.005
387,-0.255,0.030
388,-0.260,0.055
389,-0.270,0.080
390,-0.260,0.085
391,-0.265,0.090
392,-0.265,0.120
393,-0.265,0.145
394,-0.245,0.180
395,-0.230,0.210
396,-0.200,0.220
397,-0.200,0.230
398,-0.200,0.250
399,-0.185,0.280
400,-0.175,0.305
401,-0.155,0.305
402,-0.160,0.305
403,-0.145,0.315
404,-0.150,0.300
405,-0.145,0.310
406,-0.135,0.320
407,-0.130,0.325
408,-0.125,0.335
409,-0.125,0.325
410,-0.135,0.320
411,-0.125,0.325
412,-0.120,0.345
413,-0.105,0.345
414,-0.105,0.345
415,-0.110,0.335
416,-0.115,0.335
417,-0.110,0.355
418,-0.095,0.375
419,-0.090,0.370
420,-0.090,0.375
421,-0.090,0.365
422,-0.095,0.370
423,-0.100,0.370
424,-0.085,0.380
425,-0.065,0.390
426,-0.070,0.385
427,-0.095,0.380
428,-0.080,0.385
429,-0.085,0.395
430,-0.080,0.410
431,-0.060,0.405
432,-0.050,0.405
433,-0.070,0.400
434,-0.070,0.405
435,-0.070,0.420
436,-0.060,0.430
437,-0.045,0.440
438,-0.055,0.435
439,-0.055,0.435
440,-0.055,0.435
441,-0.050,0.460
442,-0.045,0.465
443,-0.025,0.470
444,-0.030,0.475
445,-0.030,0.465
446,-0.050,0.475
447,-0.040,0.485
448,-0.030,0.500
449,-0.005,0.505
450,0.000,0.505
451,-0.005,0.500
452,-0.020,0.500
453,-0.015,0.515
454,0.000,0.525
455,0.010,0.525
456,0.005,0.525
457,0.010,0.525
458,0.000,0.520
459,-0.005,0.535
460,0.015,0.540
461,0.015,0.550
462,0.015,0.545
463,0.005,0.540
464,0.000,0.535
465,-0.005,0.540
466,-0.005,0.540
467,0.005,0.540
468,0.000,0.530
469,-0.015,0.520
470,-0.030,0.510
471,-0.035,0.515
472,-0.035,0.520
473,-0.035,0.505
474,-0.040,0.500
475,-0.060,0.480
476,-0.080,0.470
477,-0.080,0.470
478,-0.080,0.470
479,-0.075,0.460
480,-0.090,0.455
481,-0.100,0.435
482,-0.120,0.425
483,-0.120,0.415
484,-0.115,0.415
485,-0.115,0.410
486,-0.125,0.390
487,-0.145,0.375
488,-0.160,0.355
489,-0.160,0.365
490,-0.150,0.370
491,-0.160,0.355
492,-0.155,0.355
493,-0.170,0.335
494,-0.175,0.315
495,-0.175,0.315
496,-0.180,0.335
497,-0.175,0.330
498,-0.175,0.315
499,-0.185,0.295
500,-0.200,0.290
501,-0.210,0.300
502,-0.190,0.305
503,-0.190,0.305
504,-0.190,0.295
505,-0.195,0.280
506,-0.215,0.260
507,-0.215,0.280
508,-0.200,0.275
509,-0.195,0.275
510,-0.205,0.280
511,-0.220,0.250
512,-0.235,0.240
513,-0.220,0.265
514,-0.215,0.270
515,-0.205,0.270
516,-0.210,0.250
517,-0.225,0.240
518,-0.235,0.225
519,-0.240,0.260
520,-0.230,0.260
521,-0.225,0.270
522,-0.230,0.260
523,-0.245,0.240
524,-0.235,0.240
525,-0.245,0.245
526,-0.235,0.245
527,-0.235,0.255
528,-0.230,0.250
529,-0.240,0.235
530,-0.260,0.240
531,-0.260,0.245
532,-0.260,0.250
533,-0.250,0.250
534,-0.265,0.255
535,-0.270,0.235
536,-0.280,0.240
537,-0.265,0.235
538,-0.260,0.250
539,-0.255,0.245
540,-0.265,0.240
541,-0.275,0.230
542,-0.285,0.220
543,-0.285,0.230
544,-0.275,0.240
545,-0.265,0.230
546,-0.270,0.230
547,-0.275,0.230
548,-0.290,0.210
549,-0.285,0.230
550,-0.290,0.230
551,-0.275,0.235
552,-0.270,0.225
553,-0.285,0.200
554,-0.310,0.200
555,-0.305,0.210
556,-0.310,0.230
557,-0.295,0.210
558,-0.295,0.220
559,-0.295,0.205
560,-0.310,0.195
561,-0.305,0.195
562,-0.300,0.205
563,-0.295,0.205
564,-0.300,0.190
565,-0.315,0.190
566,-0.320,0.190
567,-0.310,0.185
568,-0.305,0.200
569,-0.305,0.190
570,-0.315,0.195
571,-0.320,0.185
572,-0.335,0.175
573,-0.325,0.185
574,-0.315,0.195
575,-0.315,0.195
576,-0.305,0.195
577,-0.315,0.185
578,-0.320,0.175
579,-0.320,0.180
580,-0.310,0.195
581,-0.310,0.190
582,-0.325,0.190
583,-0.315,0.175
584,-0.320,0.165
585,-0.320,0.185
586,-0.330,0.185
587,-0.310,0.180
588,-0.305,0.180
589,-0.320,0.170
590,-0.325,0.175
591,-0.320,0.170
592,-0.310,0.175
593,-0.305,0.180
594,-0.315,0.175
595,-0.325,0.160
596,-0.330,0.155
597,-0.320,0.175
598,-0.310,0.180
599,-0.305,0.175
600,-0.295,0.175
601,-0.295,0.170
602,-0.305,0.170
603,-0.300,0.175
604,-0.275,0.180
605,-0.270,0.185
606,-0.270,0.185
607,-0.260,0.185
608,-0.240,0.195
609,-0.165,0.200
610,-0.005,0.240
611,0.320,0.280
612,0.770,0.415
613,0.905,0.705
614,0.565,0.965
615,0.160,0.905
616,-0.015,0.645
617,-0.005,0.445
618,0.015,0.390
619,-0.025,0.365
620,-0.075,0.345
621,-0.085,0.330
622,-0.085,0.315
623,-0.080,0.305
624,-0.085,0.290
625,-0.080,0.255
626,-0.095,0.235
627,-0.105,0.210
628,-0.110,0.180
629,-0.130,0.160
630,-0.145,0.120
631,-0.185,0.090
632,-0.195,0.075
633,-0.210,0.065
634,-0.235,0.060
635,-0.265,0.030
636,-0.305,0.010
637,-0.360,-0.015
638,-0.410,-0.040
639,-0.460,-0.050
640,-0.510,-0.065
641,-0.595,-0.095
642,-0.695,-0.110
643,-0.765,-0.125
644,-0.830,-0.145
645,-0.865,-0.155
646,-0.920,-0.150
647,-0.965,-0.170
648,-0.995,-0.195
649,-1.015,-0.235
650,-1.045,-0.290
651,-1.050,-0.325
652,-1.035,-0.365
653,-1.025,-0.395
654,-1.045,-0.400
655,-1.045,-0.450
656,-1.040,-0.480
657,-1.020,-0.515
658,-1.005,-0.545
659,-0.970,-0.580
660,-0.930,-0.595
661,-0.910,-0.640
662,-0.870,-0.670
663,-0.805,-0.680
664,-0.735,-0.670
665,-0.685,-0.640
666,-0.630,-0.605
667,-0.585,-0.555
668,-0.545,-0.505
669,-0.495,-0.430
670,-0.460,-0.360
671,-0.425,-0.295
672,-0.400,-0.235
673,-0.385,-0.185
674,-0.385,-0.135
675,-0.375,-0.085
676,-0.345,-0.045
677,-0.335,0.000
678,-0.315,0.015
679,-0.310,0.030
680,-0.325,0.045
681,-0.310,0.075
682,-0.295,0.090
683,-0.285,0.110
684,-0.290,0.105
685,-0.285,0.120
686,-0.280,0.155
687,-0.270,0.190
688,-0.225,0.220
689,-0.185,0.235
690,-0.180,0.260
691,-0.175,0.270
692,-0.175,0.285
693,-0.170,0.300
694,-0.135,0.315
695,-0.110,0.305
696,-0.090,0.320
697,-0.080,0.305
698,-0.085,0.310
699,-0.060,0.325
700,-0.065,0.355
701,-0.070,0.350
702,-0.080,0.345
703,-0.095,0.330
704,-0.105,0.320
705,-0.100,0.335
706,-0.105,0.350
707,-0.090,0.355
708,-0.090,0.355
709,-0.095,0.345
710,-0.100,0.340
711,-0.100,0.345
712,-0.080,0.370
713,-0.070,0.370
714,-0.075,0.375
715,-0.090,0.375
716,-0.100,0.365
717,-0.095,0.370
718,-0.085,0.385
719,-0.060,0.395
720,-0.050,0.395
721,-0.060,0.395
722,-0.055,0.395
723,-0.040,0.400
724,-0.030,0.425
725,-0.020,0.425
726,-0.015,0.430
727,-0.040,0.430
728,-0.050,0.425
729,-0.045,0.440
730,-0.030,0.460
731,-0.005,0.475
732,-0.005,0.470
733,-0.025,0.455
734,-0.030,0.470
735,-0.005,0.485
736,0.000,0.500
737,0.000,0.505
738,0.015,0.500
739,0.010,0.495
740,-0.005,0.515
741,0.020,0.515
742,0.030,0.545
743,0.030,0.550
744,0.060,0.535
745,0.065,0.530
746,0.030,0.530
747,0.045,0.545
748,0.055,0.550
749,0.050,0.555
750,0.050,0.550
751,0.045,0.530
752,0.025,0.530
753,0.030,0.540
754,0.035,0.540
755,0.035,0.545
756,0.030,0.540
757,0.010,0.520
758,0.000,0.505
759,-0.015,0.505
760,0.005,0.525
761,-0.005,0.505
762,-0.020,0.480
763,-0.030,0.470
764,-0.055,0.460
765,-0.050,0.460
766,-0.065,0.460
767,-0.070,0.435
768,-0.095,0.440
769,-0.110,0.410
770,-0.125,0.400
771,-0.120,0.395
772,-0.130,0.400
773,-0.110,0.395
774,-0.115,0.370
775,-0.125,0.350
776,-0.155,0.350
777,-0.160,0.340
778,-0.170,0.340
779,-0.175,0.330
780,-0.180,0.325
781,-0.190,0.300
782,-0.200,0.295
783,-0.205,0.295
784,-0.195,0.295
785,-0.190,0.285
786,-0.190,0.265
787,-0.200,0.260
788,-0.200,0.265
789,-0.205,0.255
790,-0.205,0.260
791,-0.190,0.255
792,-0.200,0.245
793,-0.195,0.225
794,-0.210,0.215
795,-0.225,0.220
796,-0.225,0.235
797,-0.220,0.220
798,-0.225,0.210
799,-0.265,0.200
800,-0.270,0.190
801,-0.255,0.200
802,-0.240,0.215
803,-0.235,0.220
804,-0.245,0.205
805,-0.250,0.195
806,-0.265,0.195
807,-0.260,0.195
808,-0.275,0.200
809,-0.265,0.205
810,-0.255,0.190
811,-0.255,0.180
812,-0.275,0.175
813,-0.255,0.195
814,-0.255,0.200
815,-0.260,0.195
816,-0.260,0.195
817,-0.270,0.190
818,-0.270,0.185
819,-0.270,0.185
820,-0.260,0.200
821,-0.265,0.195
822,-0.275,0.195
823,-0.280,0.180
824,-0.300,0.175
825,-0.290,0.180
826,-0.290,0.190
827,-0.285,0.190
828,-0.285,0.185
829,-0.300,0.185
830,-0.320,0.170
831,-0.295,0.175
832,-0.290,0.195
833,-0.290,0.190
834,-0.300,0.175
835,-0.315,0.165
836,-0.320,0.160
837,-0.315,0.165
838,-0.310,0.175
839,-0.305,0.175
840,-0.305,0.170
841,-0.320,0.160
842,-0.320,0.145
843,-0.320,0.145
844,-0.305,0.160
845,-0.300,0.165
846,-0.305,0.165
847,-0.315,0.145
848,-0.320,0.135
849,-0.325,0.155
850,-0.335,0.160
851,-0.330,0.145
852,-0.330,0.145
853,-0.320,0.130
854,-0.330,0.130
855,-0.330,0.140
856,-0.315,0.140
857,-0.325,0.135
858,-0.325,0.135
859,-0.330,0.115
860,-0.335,0.115
861,-0.325,0.130
862,-0.315,0.135
863,-0.310,0.135
864,-0.315,0.135
865,-0.325,0.120
866,-0.345,0.120
867,-0.350,0.120
868,-0.340,0.135
869,-0.330,0.125
870,-0.325,0.135
871,-0.325,0.110
872,-0.330,0.105
873,-0.340,0.120
874,-0.335,0.135
875,-0.325,0.130
876,-0.325,0.130
877,-0.325,0.120
878,-0.335,0.115
879,-0.340,0.125
880,-0.330,0.125
881,-0.320,0.120
882,-0.310,0.120
883,-0.320,0.110
884,-0.335,0.115
885,-0.330,0.115
886,-0.320,0.115
887,-0.315,0.125
888,-0.290,0.130
889,-0.310,0.120
890,-0.315,0.120
891,-0.300,0.125
892,-0.280,0.135
893,-0.270,0.135
894,-0.255,0.125
895,-0.225,0.130
896,-0.165,0.150
897,0.020,0.170
898,0.445,0.230
899,0.800,0.470
900,0.660,0.815
901,0.245,0.835
902,-0.020,0.560
903,-0.055,0.355
904,-0.015,0.320
905,0.000,0.320
906,-0.030,0.295
907,-0.050,0.260
908,-0.080,0.235
909,-0.080,0.240
910,-0.070,0.240
911,-0.050,0.220
912,-0.065,0.185
913,-0.070,0.155
914,-0.095,0.105
915,-0.095,0.080
916,-0.105,0.075
917,-0.105,0.055
918,-0.100,0.030
919,-0.140,0.005
920,-0.175,-0.015
921,-0.210,-0.025
922,-0.245,-0.030
923,-0.280,-0.060
924,-0.325,-0.090
925,-0.385,-0.120
926,-0.475,-0.135
927,-0.565,-0.145
928,-0.650,-0.145
929,-0.700,-0.160
930,-0.750,-0.170
931,-0.825,-0.200
932,-0.895,-0.210
933,-0.945,-0.230
934,-0.970,-0.250
935,-0.990,-0.305
936,-0.995,-0.350
937,-1.010,-0.405
938,-1.035,-0.430
939,-1.030,-0.440
940,-1.040,-0.455
941,-1.005,-0.485
942,-1.010,-0.530
943,-0.990,-0.560
944,-0.985,-0.590
945,-0.950,-0.615
946,-0.895,-0.635
947,-0.830,-0.670
948,-0.755,-0.680
949,-0.725,-0.670
950,-0.685,-0.640
951,-0.635,-0.590
952,-0.560,-0.540
953,-0.515,-0.480
954,-0.455,-0.430
955,-0.440,-0.375
956,-0.415,-0.315
957,-0.390,-0.245
958,-0.365,-0.185
959,-0.345,-0.150
960,-0.340,-0.110
961,-0.325,-0.080
962,-0.330,-0.065
963,-0.300,-0.030
964,-0.305,0.005
965,-0.295,0.020
966,-0.290,0.030
967,-0.305,0.030
968,-0.315,0.035
969,-0.310,0.075
970,-0.300,0.100
971,-0.290,0.120
972,-0.270,0.130
973,-0.255,0.150
974,-0.250,0.175
975,-0.220,0.195
976,-0.215,0.230
977,-0.200,0.240
978,-0.190,0.245
979,-0.175,0.235
980,-0.195,0.235
981,-0.170,0.240
982,-0.165,0.255
983,-0.160,0.270
984,-0.150,0.260
985,-0.165,0.245
986,-0.165,0.255
987,-0.150,0.255
988,-0.145,0.285
989,-0.135,0.280
990,-0.140,0.275
991,-0.135,0.270
992,-0.150,0.275
993,-0.135,0.285
994,-0.110,0.300
995,-0.110,0.295
996,-0.105,0.300
997,-0.110,0.280
998,-0.125,0.285
999,-0.105,0.320
1000,-0.100,0.320
1001,-0.095,0.320
1002,-0.100,0.320
1003,-0.110,0.315
1004,-0.105,0.325
1005,-0.100,0.335
1006,-0.085,0.345
1007,-0.070,0.345
1008,-0.080,0.340
1009,-0.085,0.350
1010,-0.080,0.365
1011,-0.070,0.390
1012,-0.050,0.390
1013,-0.045,0.400
1014,-0.060,0.395
1015,-0.060,0.395
1016,-0.070,0.415
1017,-0.050,0.435
1018,-0.035,0.435
1019,-0.035,0.445
1020,-0.040,0.435
1021,-0.055,0.440
1022,-0.035,0.460
1023,-0.030,0.475
1024,-0.015,0.475
1025,-0.005,0.470
1026,-0.005,0.460
1027,-0.005,0.455
1028,0.005,0.465
1029,0.015,0.480
1030,0.025,0.475
1031,0.040,0.485
1032,0.025,0.470
1033,0.025,0.470
1034,0.040,0.480
1035,0.050,0.485
1036,0.065,0.485
1037,0.070,0.485
1038,0.070,0.480
1039,0.065,0.475
1040,0.070,0.485
1041,0.085,0.485
1042,0.100,0.490
1043,0.110,0.485
1044,0.100,0.470
1045,0.080,0.480
1046,0.085,0.475
1047,0.075,0.480
1048,0.060,0.470
1049,0.035,0.445
1050,0.015,0.430
1051,0.000,0.425
1052,-0.010,0.415
1053,-0.005,0.425
1054,-0.020,0.410
1055,-0.030,0.395
1056,-0.050,0.375
1057,-0.080,0.370
1058,-0.085,0.355
1059,-0.080,0.350
1060,-0.065,0.355
1061,-0.080,0.330
1062,-0.095,0.315
1063,-0.105,0.305
1064,-0.115,0.305
1065,-0.110,0.315
1066,-0.110,0.290
1067,-0.120,0.285
1068,-0.125,0.275
1069,-0.145,0.250
1070,-0.140,0.255
1071,-0.135,0.260
1072,-0.135,0.255
1073,-0.140,0.235
1074,-0.155,0.240
1075,-0.170,0.210
1076,-0.165,0.220
1077,-0.150,0.225
1078,-0.150,0.220
1079,-0.170,0.205
1080,-0.175,0.195
1081,-0.175,0.185
1082,-0.175,0.190
1083,-0.170,0.205
1084,-0.170,0.185
1085,-0.165,0.185
1086,-0.165,0.170
1087,-0.190,0.160
1088,-0.190,0.175
1089,-0.190,0.185
1090,-0.175,0.180
1091,-0.175,0.160
1092,-0.190,0.155
1093,-0.200,0.155
1094,-0.190,0.155
1095,-0.190,0.165
1096,-0.195,0.175
1097,-0.195,0.175
1098,-0.205,0.155
1099,-0.210,0.145
1100,-0.195,0.155
1101,-0.200,0.170
1102,-0.180,0.155
1103,-0.185,0.155
1104,-0.190,0.145
1105,-0.200,0.150
1106,-0.200,0.155
1107,-0.200,0.155
1108,-0.185,0.150
1109,-0.210,0.140
1110,-0.210,0.135
1111,-0.215,0.130
1112,-0.210,0.140
1113,-0.210,0.145
1114,-0.210,0.150
1115,-0.215,0.140
1116,-0.210,0.125
1117,-0.240,0.135
1118,-0.230,0.145
1119,-0.215,0.155
1120,-0.215,0.160
1121,-0.220,0.145
1122,-0.230,0.140
1123,-0.240,0.125
1124,-0.240,0.140
1125,-0.240,0.140
1126,-0.225,0.140
1127,-0.225,0.135
1128,-0.240,0.125
1129,-0.245,0.115
1130,-0.245,0.135
1131,-0.245,0.140
1132,-0.240,0.120
1133,-0.240,0.120
1134,-0.255,0.115
1135,-0.255,0.120
1136,-0.255,0.125
1137,-0.250,0.120
1138,-0.240,0.110
1139,-0.240,0.110
1140,-0.250,0.100
1141,-0.255,0.095
1142,-0.260,0.105
1143,-0.245,0.115
1144,-0.245,0.120
1145,-0.255,0.110
1146,-0.265,0.095
1147,-0.265,0.090
1148,-0.265,0.105
1149,-0.260,0.115
1150,-0.255,0.115
1151,-0.250,0.110
1152,-0.260,0.100
1153,-0.285,0.095
1154,-0.270,0.110
1155,-0.265,0.105
1156,-0.270,0.110
1157,-0.260,0.105
1158,-0.270,0.095
1159,-0.275,0.090
1160,-0.275,0.095
1161,-0.260,0.100
1162,-0.260,0.100
1163,-0.265,0.100
1164,-0.270,0.085
1165,-0.275,0.090
1166,-0.270,0.085
1167,-0.275,0.105
1168,-0.260,0.110
1169,-0.260,0.100
1170,-0.275,0.090
1171,-0.280,0.095
1172,-0.280,0.100
1173,-0.265,0.100
1174,-0.255,0.115
1175,-0.250,0.100
1176,-0.260,0.095
1177,-0.260,0.095
1178,-0.255,0.095
1179,-0.240,0.120
1180,-0.215,0.115
1181,-0.195,0.110
1182,-0.150,0.115
1183,-0.040,0.125
1184,0.310,0.155
1185,0.790,0.285
1186,0.880,0.630
1187,0.480,0.825
1188,0.095,0.625
1189,-0.025,0.385
1190,0.005,0.290
1191,0.025,0.290
1192,0.025,0.290
1193,0.000,0.255
1194,-0.035,0.230
1195,-0.050,0.220
1196,-0.045,0.210
1197,-0.045,0.205
1198,-0.040,0.170
1199,-0.050,0.135
1200,-0.085,0.095
1201,-0.095,0.075
1202,-0.110,0.060
1203,-0.120,0.045
1204,-0.130,0.035
1205,-0.160,0.010
1206,-0.215,-0.025
1207,-0.270,-0.030
1208,-0.315,-0.055
1209,-0.345,-0.065
1210,-0.400,-0.090
1211,-0.475,-0.120
1212,-0.570,-0.140
1213,-0.660,-0.145
1214,-0.720,-0.145
1215,-0.765,-0.155
1216,-0.820,-0.165
1217,-0.885,-0.195
1218,-0.945,-0.250
1219,-0.975,-0.310
1220,-0.985,-0.360
1221,-1.005,-0.390
1222,-0.990,-0.440
1223,-1.000,-0.470
1224,-1.005,-0.515
1225,-1.015,-0.565
1226,-1.005,-0.595
1227,-0.990,-0.640
1228,-0.960,-0.680
1229,-0.930,-0.705
1230,-0.895,-0.755
1231,-0.840,-0.765
1232,-0.775,-0.755
1233,-0.705,-0.725
1234,-0.650,-0.690
1235,-0.590,-0.660
1236,-0.550,-0.615
1237,-0.510,-0.560
1238,-0.475,-0.490
1239,-0.430,-0.425
1240,-0.395,-0.365
1241,-0.375,-0.315
1242,-0.370,-0.275
1243,-0.375,-0.230
1244,-0.365,-0.185
1245,-0.345,-0.150
1246,-0.320,-0.125
1247,-0.300,-0.100
1248,-0.295,-0.085
1249,-0.300,-0.080
1250,-0.305,-0.045
1251,-0.295,-0.020
1252,-0.280,-0.005
1253,-0.275,0.010
1254,-0.280,0.025
1255,-0.280,0.045
1256,-0.275,0.085
1257,-0.245,0.120
1258,-0.215,0.145
1259,-0.205,0.160
1260,-0.210,0.175
1261,-0.225,0.175
1262,-0.210,0.190
1263,-0.190,0.215
1264,-0.165,0.205
1265,-0.160,0.200
1266,-0.165,0.200
1267,-0.170,0.220
1268,-0.155,0.220
1269,-0.160,0.220
1270,-0.145,0.225
1271,-0.145,0.225
1272,-0.160,0.225
1273,-0.155,0.220
1274,-0.145,0.225
1275,-0.125,0.245
1276,-0.125,0.245
1277,-0.120,0.250
1278,-0.120,0.245
1279,-0.130,0.245
1280,-0.115,0.265
1281,-0.105,0.265
1282,-0.105,0.265
1283,-0.100,0.260
1284,-0.105,0.255
1285,-0.110,0.265
1286,-0.110,0.280
1287,-0.085,0.290
1288,-0.075,0.285
1289,-0.090,0.285
1290,-0.070,0.285
1291,-0.090,0.280
1292,-0.070,0.300
1293,-0.065,0.315
1294,-0.050,0.330
1295,-0.060,0.320
1296,-0.055,0.325
1297,-0.055,0.335
1298,-0.050,0.335
1299,-0.030,0.360
1300,-0.030,0.355
1301,-0.015,0.360
1302,-0.010,0.360
1303,-0.020,0.365
1304,-0.015,0.380
1305,-0.005,0.400
1306,0.005,0.395
1307,0.005,0.395
1308,0.005,0.400
1309,0.005,0.405
1310,0.010,0.415
1311,0.025,0.435
1312,0.045,0.440
1313,0.040,0.435
1314,0.035,0.425
1315,0.045,0.440
1316,0.035,0.450
1317,0.050,0.465
1318,0.045,0.455
1319,0.060,0.455
1320,0.055,0.450
1321,0.030,0.445
1322,0.040,0.460
1323,0.045,0.470
1324,0.060,0.450
1325,0.055,0.455
1326,0.030,0.440
1327,0.025,0.435
1328,0.025,0.435
1329,0.030,0.445
1330,0.025,0.430
1331,0.005,0.420
1332,0.000,0.410
1333,-0.020,0.405
1334,-0.015,0.415
1335,-0.010,0.415
1336,-0.020,0.405
1337,-0.025,0.385
1338,-0.050,0.355
1339,-0.055,0.360
1340,-0.060,0.355
1341,-0.065,0.360
1342,-0.070,0.350
1343,-0.075,0.325
1344,-0.085,0.305
1345,-0.110,0.290
1346,-0.110,0.300
1347,-0.105,0.300
1348,-0.105,0.285
1349,-0.120,0.275
1350,-0.135,0.245
1351,-0.145,0.240
1352,-0.145,0.245
1353,-0.145,0.250
1354,-0.130,0.235
1355,-0.150,0.220
1356,-0.150,0.200
1357,-0.160,0.200
1358,-0.170,0.205
1359,-0.160,0.220
1360,-0.150,0.210
1361,-0.165,0.200
1362,-0.165,0.195
1363,-0.185,0.185
1364,-0.190,0.190
1365,-0.180,0.205
1366,-0.185,0.215
1367,-0.185,0.195
1368,-0.195,0.190
1369,-0.210,0.180
1370,-0.215,0.205
1371,-0.200,0.195
1372,-0.205,0.190
1373,-0.195,0.175
1374,-0.210,0.170
1375,-0.215,0.160
1376,-0.210,0.165
1377,-0.200,0.160
1378,-0.190,0.155
1379,-0.180,0.140
1380,-0.175,0.145
1381,-0.185,0.130
1382,-0.200,0.130
1383,-0.195,0.140
1384,-0.180,0.145
1385,-0.185,0.130
1386,-0.185,0.130
1387,-0.195,0.130
1388,-0.185,0.145
1389,-0.175,0.155
1390,-0.165,0.145
1391,-0.145,0.140
1392,-0.155,0.130
1393,-0.160,0.125
1394,-0.150,0.140
1395,-0.155,0.150
1396,-0.155,0.155
1397,-0.155,0.140
1398,-0.190,0.125
1399,-0.210,0.105
1400,-0.215,0.120
1401,-0.215,0.125
1402,-0.210,0.115
1403,-0.215,0.105
1404,-0.235,0.100
1405,-0.250,0.090
1406,-0.255,0.090
1407,-0.245,0.095
1408,-0.255,0.090
1409,-0.250,0.090
1410,-0.260,0.075
1411,-0.280,0.075
1412,-0.270,0.075
1413,-0.275,0.080
1414,-0.270,0.075
1415,-0.270,0.070
1416,-0.280,0.050
1417,-0.305,0.055
1418,-0.285,0.065
1419,-0.290,0.065
1420,-0.265,0.075
1421,-0.280,0.050
1422,-0.295,0.050
1423,-0.305,0.045
1424,-0.300,0.060
1425,-0.280,0.060
1426,-0.290,0.055
1427,-0.280,0.055
1428,-0.290,0.045
1429,-0.300,0.040
1430,-0.295,0.045
1431,-0.290,0.050
1432,-0.280,0.045
1433,-0.285,0.045
1434,-0.295,0.040
1435,-0.295,0.040
1436,-0.290,0.050
1437,-0.290,0.050
1438,-0.280,0.055
1439,-0.275,0.055
1440,-0.290,0.035
1441,-0.285,0.040
1442,-0.290,0.045
1443,-0.275,0.065
1444,-0.285,0.055
1445,-0.285,0.050
1446,-0.285,0.045
1447,-0.295,0.035
1448,-0.295,0.035
1449,-0.285,0.050
1450,-0.270,0.055
1451,-0.265,0.055
1452,-0.275,0.035
1453,-0.280,0.045
1454,-0.285,0.050
1455,-0.265,0.060
1456,-0.250,0.060
1457,-0.250,0.055
1458,-0.235,0.050
1459,-0.245,0.045
1460,-0.220,0.070
1461,-0.180,0.090
1462,-0.110,0.110
1463,0.095,0.125
1464,0.555,0.185
1465,0.955,0.490
1466,0.870,0.850
1467,0.525,0.850
1468,0.365,0.585
1469,0.430,0.435
1470,0.530,0.405
1471,0.620,0.415
1472,0.720,0.400
1473,0.875,0.400
1474,1.060,0.380
1475,1.240,0.380
1476,1.375,0.365
1477,1.425,0.325
1478,1.385,0.255
1479,1.210,0.145
1480,0.975,-0.005
1481,0.710,-0.140
1482,0.480,-0.270
1483,0.265,-0.350
1484,0.050,-0.375
1485,-0.145,-0.350
1486,-0.305,-0.325
1487,-0.395,-0.285
1488,-0.435,-0.230
1489,-0.450,-0.180
1490,-0.455,-0.130
1491,-0.440,-0.060
1492,-0.435,-0.020
1493,-0.420,-0.010
1494,-0.425,0.000
1495,-0.435,0.005
1496,-0.420,0.015
1497,-0.420,0.025
1498,-0.405,0.015
1499,-0.410,0.015
1500,-0.430,0.000
1501,-0.430,0.005
1502,-0.430,0.005
1503,-0.425,0.005
1504,-0.425,0.005
1505,-0.430,-0.005
1506,-0.450,-0.005
1507,-0.465,0.000
1508,-0.460,0.000
1509,-0.450,0.010
1510,-0.440,0.005
1511,-0.445,-0.010
1512,-0.455,-0.020
1513,-0.480,-0.010
1514,-0.465,-0.010
1515,-0.460,-0.005
1516,-0.460,-0.005
1517,-0.460,-0.025
1518,-0.480,-0.030
1519,-0.500,-0.035
1520,-0.500,-0.030
1521,-0.490,-0.015
1522,-0.505,-0.020
1523,-0.495,-0.025
1524,-0.500,-0.045
1525,-0.525,-0.040
1526,-0.505,-0.040
1527,-0.510,-0.030
1528,-0.510,-0.040
1529,-0.530,-0.040
1530,-0.535,-0.055
1531,-0.550,-0.065
1532,-0.545,-0.060
1533,-0.535,-0.050
1534,-0.545,-0.055
1535,-0.540,-0.065
1536,-0.550,-0.070
1537,-0.570,-0.075
1538,-0.565,-0.075
1539,-0.550,-0.055
1540,-0.545,-0.060
1541,-0.555,-0.080
1542,-0.580,-0.080
1543,-0.580,-0.080
1544,-0.590,-0.080
1545,-0.575,-0.070
1546,-0.575,-0.070
1547,-0.570,-0.085
1548,-0.585,-0.100
1549,-0.600,-0.090
1550,-0.580,-0.090
1551,-0.585,-0.080
1552,-0.580,-0.085
1553,-0.590,-0.095
1554,-0.590,-0.100
1555,-0.600,-0.100
1556,-0.585,-0.100
1557,-0.570,-0.080
1558,-0.565,-0.080
1559,-0.565,-0.090
1560,-0.570,-0.100
1561,-0.585,-0.090
1562,-0.565,-0.080
1563,-0.560,-0.065
1564,-0.545,-0.070
1565,-0.540,-0.075
1566,-0.555,-0.080
1567,-0.545,-0.070
1568,-0.535,-0.060
1569,-0.510,-0.050
1570,-0.495,-0.045
1571,-0.495,-0.050
1572,-0.490,-0.035
1573,-0.490,-0.045
1574,-0.465,-0.030
1575,-0.455,-0.005
1576,-0.440,0.000
1577,-0.445,-0.010
1578,-0.435,-0.005
1579,-0.425,0.010
1580,-0.395,0.030
1581,-0.390,0.035
1582,-0.375,0.045
1583,-0.360,0.045
1584,-0.345,0.045
1585,-0.345,0.050
1586,-0.330,0.075
1587,-0.310,0.085
1588,-0.300,0.085
1589,-0.290,0.080
1590,-0.295,0.075
1591,-0.300,0.090
1592,-0.280,0.090
1593,-0.270,0.110
1594,-0.265,0.110
1595,-0.265,0.115
1596,-0.265,0.105
1597,-0.260,0.110
1598,-0.265,0.110
1599,-0.260,0.120
1600,-0.255,0.115
1601,-0.255,0.115
1602,-0.250,0.115
1603,-0.260,0.090
1604,-0.255,0.110
1605,-0.260,0.110
1606,-0.250,0.120
1607,-0.255,0.115
1608,-0.255,0.100
1609,-0.265,0.095
1610,-0.255,0.105
1611,-0.245,0.110
1612,-0.250,0.105
1613,-0.255,0.090
1614,-0.270,0.085
1615,-0.270,0.085
1616,-0.270,0.090
1617,-0.265,0.100
1618,-0.260,0.105
1619,-0.260,0.090
1620,-0.275,0.085
1621,-0.285,0.080
1622,-0.295,0.085
1623,-0.285,0.090
1624,-0.265,0.090
1625,-0.270,0.090
1626,-0.275,0.075
1627,-0.300,0.080
1628,-0.280,0.080
1629,-0.280,0.085
1630,-0.275,0.080
1631,-0.285,0.080
1632,-0.300,0.065
1633,-0.300,0.070
1634,-0.305,0.090
1635,-0.305,0.090
1636,-0.295,0.080
1637,-0.285,0.075
1638,-0.305,0.075
1639,-0.310,0.085
1640,-0.310,0.085
1641,-0.305,0.090
1642,-0.295,0.105
1643,-0.295,0.085
1644,-0.310,0.070
1645,-0.320,0.080
1646,-0.315,0.095
1647,-0.305,0.100
1648,-0.300,0.095
1649,-0.300,0.090
1650,-0.305,0.090
1651,-0.320,0.075
1652,-0.310,0.085
1653,-0.310,0.105
1654,-0.290,0.100
1655,-0.285,0.085
1656,-0.305,0.085
1657,-0.305,0.085
1658,-0.310,0.085
1659,-0.300,0.105
1660,-0.295,0.100
1661,-0.290,0.090
1662,-0.305,0.075
1663,-0.305,0.070
1664,-0.300,0.090
1665,-0.285,0.095
1666,-0.290,0.090
1667,-0.290,0.080
1668,-0.295,0.070
1669,-0.310,0.075
1670,-0.300,0.075
1671,-0.300,0.085
1672,-0.280,0.085
1673,-0.270,0.080
1674,-0.290,0.075
1675,-0.290,0.075
1676,-0.295,0.085
1677,-0.285,0.090
1678,-0.270,0.085
1679,-0.290,0.075
1680,-0.300,0.065
1681,-0.290,0.060
1682,-0.290,0.070
1683,-0.280,0.085
1684,-0.275,0.075
1685,-0.275,0.075
1686,-0.280,0.070
1687,-0.290,0.065
1688,-0.285,0.075
1689,-0.275,0.080
1690,-0.270,0.090
1691,-0.275,0.085
1692,-0.285,0.075
1693,-0.295,0.080
1694,-0.290,0.095
1695,-0.295,0.110
1696,-0.290,0.105
1697,-0.280,0.095
1698,-0.290,0.085
1699,-0.310,0.085
1700,-0.300,0.100
1701,-0.290,0.105
1702,-0.280,0.105
1703,-0.280,0.095
1704,-0.290,0.085
1705,-0.295,0.075
1706,-0.280,0.080
1707,-0.265,0.090
1708,-0.260,0.075
1709,-0.255,0.070
1710,-0.250,0.070
1711,-0.270,0.070
1712,-0.265,0.065
1713,-0.250,0.070
1714,-0.250,0.080
1715,-0.245,0.060
1716,-0.245,0.055
1717,-0.255,0.070
1718,-0.250,0.075
1719,-0.225,0.085
1720,-0.210,0.065
1721,-0.200,0.065
1722,-0.205,0.060
1723,-0.220,0.050
1724,-0.210,0.065
1725,-0.200,0.085
1726,-0.200,0.080
1727,-0.215,0.080
1728,-0.245,0.060
1729,-0.245,0.060
1730,-0.250,0.075
1731,-0.250,0.070
1732,-0.245,0.060
1733,-0.230,0.050
1734,-0.250,0.050
1735,-0.260,0.050
1736,-0.265,0.050
1737,-0.270,0.060
1738,-0.250,0.050
1739,-0.250,0.055
1740,-0.245,0.035
1741,-0.245,0.045
1742,-0.220,0.050
1743,-0.190,0.075
1744,-0.145,0.075
1745,-0.050,0.075
1746,0.170,0.085
1747,0.570,0.155
1748,0.910,0.390
1749,0.770,0.725
1750,0.365,0.785
1751,0.095,0.550
1752,0.025,0.320
1753,0.045,0.245
1754,0.045,0.240
1755,0.020,0.235
1756,0.015,0.215
1757,0.000,0.170
1758,-0.010,0.170
1759,-0.040,0.155
1760,-0.030,0.145
1761,-0.010,0.150
1762,-0.005,0.130
1763,-0.025,0.095
1764,-0.030,0.055
1765,-0.050,0.025
1766,-0.055,0.020
1767,-0.065,0.025
1768,-0.060,0.010
1769,-0.075,-0.005
1770,-0.090,-0.015
1771,-0.130,-0.030
1772,-0.145,-0.030
1773,-0.175,-0.045
1774,-0.220,-0.060
1775,-0.260,-0.080
1776,-0.295,-0.105
1777,-0.360,-0.115
1778,-0.430,-0.120
1779,-0.510,-0.110
1780,-0.565,-0.125
1781,-0.600,-0.140
1782,-0.615,-0.165
1783,-0.655,-0.165
1784,-0.675,-0.175
1785,-0.710,-0.175
1786,-0.720,-0.200
1787,-0.735,-0.205
1788,-0.735,-0.225
1789,-0.750,-0.230
1790,-0.710,-0.220
1791,-0.660,-0.215
1792,-0.595,-0.205
1793,-0.535,-0.185
1794,-0.455,-0.170
1795,-0.415,-0.185
1796,-0.350,-0.175
1797,-0.320,-0.170
1798,-0.305,-0.200
1799,-0.335,-0.235
1800,-0.360,-0.300
1801,-0.405,-0.360
1802,-0.435,-0.385
1803,-0.450,-0.395
1804,-0.460,-0.385
1805,-0.485,-0.375
1806,-0.490,-0.340
1807,-0.495,-0.305
1808,-0.470,-0.245
1809,-0.420,-0.195
1810,-0.395,-0.145
1811,-0.360,-0.105
1812,-0.340,-0.065
1813,-0.335,-0.010
1814,-0.310,0.030
1815,-0.315,0.055
1816,-0.300,0.065
1817,-0.290,0.075
1818,-0.290,0.075
1819,-0.295,0.075
1820,-0.265,0.085
1821,-0.265,0.095
1822,-0.240,0.095
1823,-0.220,0.085
1824,-0.220,0.080
1825,-0.220,0.070
1826,-0.225,0.085
1827,-0.205,0.095
1828,-0.205,0.090
1829,-0.200,0.085
1830,-0.195,0.090
1831,-0.200,0.075
1832,-0.195,0.095
1833,-0.185,0.105
1834,-0.180,0.105
1835,-0.175,0.090
1836,-0.180,0.085
1837,-0.185,0.090
1838,-0.175,0.095
1839,-0.165,0.110
1840,-0.165,0.105
1841,-0.165,0.085
1842,-0.175,0.085
1843,-0.180,0.080
1844,-0.175,0.100
1845,-0.160,0.105
1846,-0.155,0.110
1847,-0.160,0.095
1848,-0.150,0.090
1849,-0.165,0.090
1850,-0.145,0.110
1851,-0.130,0.120
1852,-0.120,0.105
1853,-0.125,0.110
1854,-0.135,0.100
1855,-0.145,0.095
1856,-0.135,0.105
1857,-0.120,0.135
1858,-0.100,0.120
1859,-0.110,0.120
1860,-0.110,0.125
1861,-0.115,0.110
1862,-0.105,0.135
1863,-0.090,0.140
1864,-0.080,0.160
1865,-0.090,0.135
1866,-0.095,0.135
1867,-0.100,0.140
1868,-0.090,0.145
1869,-0.085,0.165
1870,-0.080,0.155
1871,-0.075,0.150
1872,-0.080,0.135
1873,-0.075,0.145
1874,-0.080,0.155
1875,-0.070,0.175
1876,-0.050,0.165
1877,-0.050,0.165
1878,-0.060,0.160
1879,-0.065,0.170
1880,-0.050,0.175
1881,-0.045,0.195
1882,-0.015,0.195
1883,-0.020,0.180
1884,-0.030,0.175
1885,-0.030,0.180
1886,-0.025,0.200
1887,0.000,0.215
1888,0.000,0.205
1889,0.000,0.205
1890,-0.010,0.195
1891,-0.015,0.195
1892,-0.015,0.215
1893,-0.010,0.230
1894,0.010,0.225
1895,0.010,0.210
1896,0.010,0.210
1897,0.005,0.215
1898,0.005,0.225
1899,0.010,0.220
1900,0.005,0.230
1901,0.015,0.230
1902,-0.005,0.215
1903,-0.010,0.210
1904,-0.010,0.225
1905,-0.005,0.220
1906,-0.015,0.220
1907,-0.015,0.220
1908,-0.025,0.200
1909,-0.045,0.205
1910,-0.040,0.215
1911,-0.040,0.225
1912,-0.050,0.215
1913,-0.055,0.200
1914,-0.060,0.190
1915,-0.090,0.200
1916,-0.095,0.205
1917,-0.085,0.215
1918,-0.080,0.200
1919,-0.085,0.185
1920,-0.100,0.185
1921,-0.115,0.175
1922,-0.110,0.185
1923,-0.115,0.190
1924,-0.110,0.180
1925,-0.115,0.170
1926,-0.130,0.155
1927,-0.135,0.155
1928,-0.145,0.160
1929,-0.140,0.165
1930,-0.145,0.170
1931,-0.150,0.155
1932,-0.170,0.140
1933,-0.185,0.130
1934,-0.185,0.135
1935,-0.180,0.135
1936,-0.180,0.135
1937,-0.185,0.130
1938,-0.185,0.120
1939,-0.205,0.120
1940,-0.200,0.130
1941,-0.200,0.135
1942,-0.190,0.125
1943,-0.190,0.115
1944,-0.205,0.110
1945,-0.230,0.105
1946,-0.220,0.125
1947,-0.200,0.130
1948,-0.210,0.115
1949,-0.215,0.115
1950,-0.225,0.100
1951,-0.240,0.105
1952,-0.225,0.110
1953,-0.220,0.120
1954,-0.215,0.120
1955,-0.225,0.095
1956,-0.220,0.100
1957,-0.235,0.100
1958,-0.220,0.095
1959,-0.205,0.110
1960,-0.200,0.105
1961,-0.225,0.090
1962,-0.235,0.090
1963,-0.245,0.080
1964,-0.250,0.090
1965,-0.235,0.105
1966,-0.220,0.095
1967,-0.210,0.095
1968,-0.220,0.090
1969,-0.230,0.080
1970,-0.245,0.095
1971,-0.240,0.110
1972,-0.240,0.105
1973,-0.245,0.090
1974,-0.250,0.080
1975,-0.260,0.075
1976,-0.255,0.095
1977,-0.255,0.095
1978,-0.245,0.080
1979,-0.245,0.085
1980,-0.250,0.085
1981,-0.250,0.080
1982,-0.240,0.090
1983,-0.230,0.105
1984,-0.220,0.090
1985,-0.230,0.085
1986,-0.240,0.080
1987,-0.255,0.080
1988,-0.255,0.090
1989,-0.240,0.105
1990,-0.240,0.100
1991,-0.235,0.095
1992,-0.250,0.080
1993,-0.265,0.095
1994,-0.255,0.085
1995,-0.260,0.090
1996,-0.245,0.085
1997,-0.250,0.080
1998,-0.260,0.070
1999,-0.270,0.085
2000,-0.260,0.085
2001,-0.250,0.085
2002,-0.250,0.095
2003,-0.260,0.085
2004,-0.260,0.070
2005,-0.255,0.075
2006,-0.250,0.075
2007,-0.250,0.085
2008,-0.240,0.095
2009,-0.245,0.085
2010,-0.255,0.065
2011,-0.260,0.060
2012,-0.260,0.070
2013,-0.255,0.080
2014,-0.260,0.070
2015,-0.260,0.065
2016,-0.275,0.055
2017,-0.275,0.060
2018,-0.270,0.075
2019,-0.255,0.070
2020,-0.265,0.065
2021,-0.260,0.065
2022,-0.275,0.055
2023,-0.305,0.060
2024,-0.290,0.060
2025,-0.285,0.055
2026,-0.275,0.055
2027,-0.275,0.050
2028,-0.280,0.040
2029,-0.290,0.050
2030,-0.285,0.045
2031,-0.280,0.060
2032,-0.275,0.050
2033,-0.265,0.035
2034,-0.285,0.035
2035,-0.300,0.035
2036,-0.280,0.045
2037,-0.280,0.060
2038,-0.275,0.045
2039,-0.275,0.040
2040,-0.285,0.035
2041,-0.290,0.040
2042,-0.285,0.045
2043,-0.270,0.055
2044,-0.260,0.055
2045,-0.275,0.045
2046,-0.280,0.050
2047,-0.295,0.040
2048,-0.295,0.055
2049,-0.285,0.060
2050,-0.275,0.055
2051,-0.285,0.045
2052,-0.265,0.065
2053,-0.270,0.070
2054,-0.245,0.080
2055,-0.220,0.105
2056,-0.180,0.110
2057,-0.105,0.115
2058,0.070,0.120
2059,0.480,0.180
2060,0.885,0.440
2061,0.770,0.790
2062,0.350,0.835
2063,0.050,0.570
2064,-0.025,0.335
2065,0.000,0.260
2066,0.015,0.255
2067,0.000,0.235
2068,-0.025,0.210
2069,-0.030,0.175
2070,-0.040,0.160
2071,-0.060,0.140
2072,-0.055,0.145
2073,-0.045,0.110
2074,-0.060,0.090
2075,-0.075,0.035
2076,-0.080,-0.005
2077,-0.080,-0.030
2078,-0.070,-0.030
2079,-0.060,-0.045
2080,-0.050,-0.075
2081,-0.090,-0.105
2082,-0.140,-0.140
2083,-0.210,-0.135
2084,-0.265,-0.160
2085,-0.320,-0.165
2086,-0.385,-0.200
2087,-0.485,-0.235
2088,-0.600,-0.245
2089,-0.695,-0.270
2090,-0.755,-0.260
2091,-0.785,-0.260
2092,-0.850,-0.280
2093,-0.915,-0.310
2094,-0.990,-0.340
2095,-1.050,-0.380
2096,-1.075,-0.405
2097,-1.065,-0.435
2098,-1.070,-0.485
2099,-1.075,-0.510
2100,-1.105,-0.535
2101,-1.100,-0.550
2102,-1.070,-0.580
2103,-1.045,-0.595
2104,-1.020,-0.625
2105,-1.000,-0.650
2106,-0.990,-0.675
2107,-0.970,-0.700
2108,-0.930,-0.715
2109,-0.870,-0.735
2110,-0.815,-0.765
2111,-0.770,-0.765
2112,-0.750,-0.750
2113,-0.715,-0.720
2114,-0.660,-0.675
2115,-0.605,-0.650
2116,-0.545,-0.585
2117,-0.495,-0.555
2118,-0.475,-0.515
2119,-0.460,-0.460
2120,-0.425,-0.385
2121,-0.405,-0.310
2122,-0.380,-0.270
2123,-0.375,-0.225
2124,-0.375,-0.200
2125,-0.355,-0.175
2126,-0.335,-0.130
2127,-0.310,-0.095
2128,-0.305,-0.080
2129,-0.290,-0.070
2130,-0.315,-0.065
2131,-0.335,-0.045
2132,-0.335,-0.030
2133,-0.325,-0.005
2134,-0.325,0.010
2135,-0.325,0.025
2136,-0.315,0.030
2137,-0.295,0.055
2138,-0.265,0.085
2139,-0.250,0.115
2140,-0.225,0.120
2141,-0.230,0.130
2142,-0.230,0.130
2143,-0.225,0.140
2144,-0.210,0.160
2145,-0.185,0.170
2146,-0.170,0.160
2147,-0.175,0.155
2148,-0.175,0.150
2149,-0.165,0.150
2150,-0.155,0.165
2151,-0.140,0.180
2152,-0.145,0.170
2153,-0.140,0.180
2154,-0.140,0.175
2155,-0.145,0.180
2156,-0.130,0.190
2157,-0.110,0.200
2158,-0.095,0.190
2159,-0.110,0.200
2160,-0.105,0.190
2161,-0.115,0.190
2162,-0.105,0.210
2163,-0.095,0.215
2164,-0.085,0.220
2165,-0.090,0.215
2166,-0.080,0.210
2167,-0.090,0.215
2168,-0.085,0.225
2169,-0.075,0.240
2170,-0.065,0.240
2171,-0.060,0.235
2172,-0.080,0.240
2173,-0.075,0.245
2174,-0.075,0.245
2175,-0.065,0.270
2176,-0.060,0.265
2177,-0.060,0.255
2178,-0.050,0.265
2179,-0.070,0.265
2180,-0.070,0.275
2181,-0.055,0.295
2182,-0.050,0.285
2183,-0.050,0.285
2184,-0.040,0.280
2185,-0.045,0.285
2186,-0.035,0.295
2187,-0.020,0.310
2188,-0.020,0.310
2189,-0.025,0.315
2190,-0.020,0.305
2191,-0.025,0.305
2192,-0.015,0.305
2193,-0.015,0.335
2194,-0.010,0.335
2195,-0.005,0.330
2196,-0.010,0.330
2197,-0.020,0.325
2198,-0.025,0.345
2199,-0.005,0.365
2200,0.000,0.355
2201,0.010,0.355
2202,-0.005,0.350
2203,-0.015,0.355
2204,0.000,0.365
2205,0.000,0.360
2206,0.005,0.365
2207,-0.005,0.355
2208,0.000,0.350
2209,-0.010,0.340
2210,-0.010,0.345
2211,0.000,0.360
2212,-0.005,0.355
2213,-0.010,0.340
2214,-0.025,0.335
2215,-0.025,0.330
2216,-0.015,0.350
2217,-0.020,0.335
2218,-0.015,0.325
2219,-0.035,0.305
2220,-0.050,0.300
2221,-0.055,0.300
2222,-0.065,0.310
2223,-0.070,0.310
2224,-0.075,0.290
2225,-0.075,0.285
2226,-0.090,0.275
2227,-0.125,0.260
2228,-0.105,0.265
2229,-0.115,0.255
2230,-0.125,0.255
2231,-0.125,0.230
2232,-0.135,0.220
2233,-0.155,0.205
2234,-0.155,0.215
2235,-0.150,0.215
2236,-0.150,0.195
2237,-0.170,0.185
2238,-0.170,0.175
2239,-0.180,0.160
2240,-0.180,0.175
2241,-0.180,0.170
2242,-0.165,0.170
2243,-0.180,0.165
2244,-0.200,0.135
2245,-0.205,0.140
2246,-0.195,0.140
2247,-0.185,0.155
2248,-0.180,0.135
2249,-0.200,0.120
2250,-0.210,0.110
2251,-0.210,0.105
2252,-0.215,0.125
2253,-0.205,0.120
2254,-0.195,0.110
2255,-0.210,0.100
2256,-0.210,0.095
2257,-0.220,0.105
2258,-0.220,0.095
2259,-0.210,0.110
2260,-0.205,0.090
2261,-0.215,0.095
2262,-0.205,0.085
2263,-0.225,0.085
2264,-0.215,0.090
2265,-0.205,0.105
2266,-0.200,0.095
2267,-0.205,0.080
2268,-0.210,0.085
2269,-0.215,0.075
2270,-0.220,0.085
2271,-0.200,0.090
2272,-0.200,0.095
2273,-0.210,0.070
2274,-0.215,0.070
2275,-0.225,0.075
2276,-0.220,0.075
2277,-0.205,0.065
2278,-0.210,0.080
2279,-0.205,0.075
2280,-0.215,0.055
2281,-0.225,0.070
2282,-0.220,0.075
2283,-0.220,0.085
2284,-0.220,0.085
2285,-0.230,0.075
2286,-0.230,0.065
2287,-0.245,0.065
2288,-0.230,0.080
2289,-0.225,0.090
2290,-0.220,0.075
2291,-0.225,0.080
2292,-0.230,0.070
2293,-0.255,0.050
2294,-0.245,0.065
2295,-0.240,0.075
2296,-0.240,0.070
2297,-0.240,0.065
2298,-0.250,0.045
2299,-0.260,0.055
2300,-0.260,0.065
2301,-0.255,0.080
2302,-0.250,0.060
2303,-0.255,0.055
2304,-0.255,0.055
2305,-0.270,0.050
2306,-0.275,0.065
2307,-0.265,0.080
2308,-0.255,0.060
2309,-0.255,0.050
2310,-0.280,0.050
2311,-0.305,0.040
2312,-0.280,0.060
2313,-0.270,0.055
2314,-0.280,0.050
2315,-0.280,0.045
2316,-0.285,0.045
2317,-0.290,0.040
2318,-0.285,0.045
2319,-0.275,0.050
2320,-0.280,0.055
2321,-0.280,0.045
2322,-0.285,0.035
2323,-0.295,0.030
2324,-0.300,0.045
2325,-0.280,0.045
2326,-0.290,0.050
2327,-0.290,0.035
2328,-0.290,0.025
2329,-0.315,0.030
2330,-0.300,0.030
2331,-0.290,0.035
2332,-0.290,0.030
2333,-0.290,0.040
2334,-0.300,0.025
2335,-0.315,0.025
2336,-0.300,0.035
2337,-0.290,0.040
2338,-0.295,0.030
2339,-0.280,0.035
2340,-0.290,0.025
2341,-0.305,0.020
2342,-0.305,0.040
2343,-0.300,0.050
2344,-0.285,0.045
2345,-0.290,0.040
2346,-0.295,0.035
2347,-0.310,0.020
2348,-0.295,0.035
2349,-0.285,0.055
2350,-0.285,0.040
2351,-0.275,0.045
2352,-0.280,0.035
2353,-0.280,0.040
2354,-0.240,0.050
2355,-0.190,0.075
2356,-0.100,0.085
2357,0.185,0.115
2358,0.650,0.295
2359,0.825,0.660
2360,0.510,0.850
2361,0.135,0.640
2362,-0.020,0.355
2363,-0.015,0.230
2364,0.015,0.215
2365,-0.015,0.205
2366,-0.035,0.195
2367,-0.040,0.190
2368,-0.040,0.165
2369,-0.040,0.155
2370,-0.040,0.130
2371,-0.055,0.090
2372,-0.055,0.060
2373,-0.065,0.035
2374,-0.055,0.010
2375,-0.075,-0.005
2376,-0.095,-0.035
2377,-0.130,-0.040
2378,-0.165,-0.050
2379,-0.195,-0.045
2380,-0.235,-0.075
2381,-0.280,-0.105
2382,-0.330,-0.130
2383,-0.400,-0.155
2384,-0.475,-0.160
2385,-0.570,-0.145
2386,-0.630,-0.160
2387,-0.685,-0.180
2388,-0.735,-0.200
2389,-0.815,-0.215
2390,-0.875,-0.215
2391,-0.925,-0.235
2392,-0.960,-0.280
2393,-0.980,-0.325
2394,-1.020,-0.385
2395,-1.035,-0.425
2396,-1.040,-0.425
2397,-1.050,-0.455
2398,-1.040,-0.485
2399,-1.035,-0.535
2400,-1.040,-0.580
2401,-1.040,-0.620
2402,-1.015,-0.645
2403,-0.975,-0.660
2404,-0.930,-0.700
2405,-0.890,-0.735
2406,-0.835,-0.770
2407,-0.780,-0.770
2408,-0.720,-0.735
2409,-0.650,-0.700
2410,-0.595,-0.665
2411,-0.540,-0.630
2412,-0.505,-0.585
2413,-0.455,-0.530
2414,-0.420,-0.450
2415,-0.380,-0.380
2416,-0.345,-0.330
2417,-0.335,-0.275
2418,-0.325,-0.260
2419,-0.315,-0.230
2420,-0.290,-0.190
2421,-0.255,-0.145
2422,-0.240,-0.115
2423,-0.225,-0.105
2424,-0.235,-0.100
2425,-0.235,-0.080
2426,-0.245,-0.055
2427,-0.240,-0.030
2428,-0.255,-0.035
2429,-0.270,-0.035
2430,-0.270,-0.015
2431,-0.275,0.005
2432,-0.260,0.025
2433,-0.245,0.060
2434,-0.230,0.080
2435,-0.220,0.100
2436,-0.215,0.090
2437,-0.220,0.120
2438,-0.200,0.140
2439,-0.195,0.150
2440,-0.185,0.160
2441,-0.180,0.140
2442,-0.180,0.130
2443,-0.180,0.145
2444,-0.175,0.150
2445,-0.165,0.155
2446,-0.160,0.155
2447,-0.155,0.155
2448,-0.150,0.150
2449,-0.160,0.155
2450,-0.155,0.165
2451,-0.145,0.175
2452,-0.130,0.175
2453,-0.140,0.170
2454,-0.140,0.175
2455,-0.150,0.195
2456,-0.145,0.180
2457,-0.130,0.205
2458,-0.125,0.205
2459,-0.125,0.185
2460,-0.125,0.195
2461,-0.135,0.205
2462,-0.130,0.210
2463,-0.110,0.225
2464,-0.100,0.220
2465,-0.115,0.215
2466,-0.120,0.220
2467,-0.120,0.225
2468,-0.110,0.225
2469,-0.085,0.245
2470,-0.095,0.245
2471,-0.095,0.240
2472,-0.090,0.245
2473,-0.095,0.250
2474,-0.075,0.265
2475,-0.075,0.285
2476,-0.070,0.290
2477,-0.055,0.275
2478,-0.075,0.270
2479,-0.075,0.285
2480,-0.060,0.295
2481,-0.055,0.315
2482,-0.055,0.310
2483,-0.050,0.300
2484,-0.060,0.300
2485,-0.065,0.315
2486,-0.055,0.320
2487,-0.040,0.335
2488,-0.035,0.335
2489,-0.040,0.345
2490,-0.035,0.335
2491,-0.030,0.335
2492,-0.020,0.345
2493,-0.005,0.365
2494,-0.015,0.370
2495,0.000,0.360
2496,-0.005,0.350
2497,-0.010,0.370
2498,0.005,0.360
2499,-0.005,0.385
2500,0.000,0.390
2501,0.015,0.375
2502,0.005,0.370
2503,0.000,0.370
2504,-0.005,0.370
2505,0.005,0.390
2506,0.010,0.380
2507,0.000,0.370
2508,-0.015,0.365
2509,-0.020,0.360
2510,-0.025,0.360
2511,-0.015,0.370
2512,-0.035,0.365
2513,-0.040,0.350
2514,-0.055,0.340
2515,-0.070,0.325
2516,-0.060,0.330
2517,-0.070,0.330
2518,-0.075,0.325
2519,-0.080,0.290
2520,-0.095,0.280
2521,-0.105,0.290
2522,-0.105,0.290
2523,-0.110,0.280
2524,-0.115,0.270
2525,-0.130,0.255
2526,-0.145,0.235
2527,-0.160,0.230
2528,-0.165,0.240
2529,-0.150,0.235
2530,-0.145,0.230
2531,-0.175,0.210
2532,-0.180,0.200
2533,-0.205,0.185
2534,-0.200,0.200
2535,-0.200,0.185
2536,-0.195,0.185
2537,-0.195,0.170
2538,-0.215,0.155
2539,-0.225,0.160
2540,-0.225,0.155
2541,-0.215,0.155
2542,-0.220,0.150
2543,-0.225,0.135
2544,-0.240,0.120
2545,-0.250,0.125
2546,-0.245,0.115
2547,-0.235,0.140
2548,-0.240,0.125
2549,-0.250,0.120
2550,-0.255,0.105
2551,-0.260,0.100
2552,-0.270,0.105
2553,-0.260,0.120
2554,-0.250,0.110
2555,-0.255,0.095
2556,-0.265,0.095
2557,-0.270,0.085
2558,-0.270,0.095
2559,-0.265,0.100
2560,-0.260,0.090
2561,-0.270,0.085
2562,-0.275,0.075
2563,-0.290,0.075
2564,-0.290,0.090
2565,-0.275,0.095
2566,-0.285,0.095
2567,-0.295,0.090
2568,-0.290,0.075
2569,-0.290,0.080
2570,-0.305,0.085
2571,-0.285,0.100
2572,-0.280,0.085
2573,-0.300,0.080
2574,-0.310,0.070
2575,-0.315,0.060
2576,-0.310,0.085
2577,-0.310,0.090
2578,-0.310,0.080
2579,-0.320,0.080
2580,-0.320,0.070
2581,-0.320,0.055
2582,-0.325,0.060
2583,-0.310,0.085
2584,-0.310,0.080
2585,-0.320,0.065
2586,-0.330,0.050
2587,-0.335,0.055
2588,-0.345,0.055
2589,-0.340,0.070
2590,-0.340,0.055
2591,-0.325,0.055
2592,-0.350,0.050
2593,-0.350,0.045
2594,-0.340,0.055
2595,-0.330,0.050
2596,-0.340,0.050
2597,-0.345,0.045
2598,-0.360,0.030
2599,-0.370,0.020
2600,-0.360,0.040
2601,-0.350,0.040
2602,-0.350,0.035
2603,-0.360,0.030
2604,-0.370,0.020
2605,-0.390,0.025
2606,-0.375,0.030
2607,-0.355,0.035
2608,-0.365,0.025
2609,-0.365,0.025
2610,-0.375,0.005
2611,-0.385,0.000
2612,-0.385,0.020
2613,-0.380,0.025
2614,-0.365,0.030
2615,-0.375,0.020
2616,-0.385,-0.005
2617,-0.390,-0.005
2618,-0.380,0.010
2619,-0.370,0.020
2620,-0.365,0.015
2621,-0.380,0.010
2622,-0.385,0.000
2623,-0.395,0.005
2624,-0.385,0.005
2625,-0.380,0.025
2626,-0.380,0.025
2627,-0.370,0.005
2628,-0.390,0.000
2629,-0.390,0.005
2630,-0.385,0.010
2631,-0.370,0.020
2632,-0.370,0.020
2633,-0.370,0.015
2634,-0.370,-0.005
2635,-0.380,0.005
2636,-0.360,0.010
2637,-0.365,0.015
2638,-0.360,0.010
2639,-0.360,0.005
2640,-0.365,0.010
2641,-0.350,0.010
2642,-0.340,0.020
2643,-0.310,0.025
2644,-0.280,0.025
2645,-0.245,0.035
2646,-0.155,0.040
2647,0.060,0.075
2648,0.505,0.175
2649,0.880,0.460
2650,0.750,0.785
2651,0.315,0.795
2652,0.010,0.515
2653,-0.070,0.290
2654,-0.050,0.220
2655,-0.035,0.225
2656,-0.065,0.200
2657,-0.095,0.165
2658,-0.120,0.150
2659,-0.125,0.125
2660,-0.120,0.125
2661,-0.125,0.120
2662,-0.115,0.095
2663,-0.125,0.050
2664,-0.145,0.025
2665,-0.160,0.000
2666,-0.170,-0.015
2667,-0.160,-0.035
2668,-0.170,-0.040
2669,-0.200,-0.070
2670,-0.225,-0.085
2671,-0.270,-0.100
2672,-0.310,-0.105
2673,-0.335,-0.120
2674,-0.370,-0.130
2675,-0.405,-0.150
2676,-0.445,-0.185
2677,-0.515,-0.205
2678,-0.580,-0.210
2679,-0.665,-0.210
2680,-0.715,-0.215
2681,-0.780,-0.240
2682,-0.830,-0.255
2683,-0.900,-0.270
2684,-0.945,-0.270
2685,-0.990,-0.305
2686,-1.020,-0.345
2687,-1.045,-0.410
2688,-1.065,-0.460
2689,-1.085,-0.500
2690,-1.085,-0.520
2691,-1.070,-0.530
2692,-1.075,-0.570
2693,-1.075,-0.610
2694,-1.080,-0.660
2695,-1.085,-0.685
2696,-1.065,-0.705
2697,-1.045,-0.735
2698,-1.010,-0.780
2699,-0.985,-0.800
2700,-0.940,-0.830
2701,-0.900,-0.845
2702,-0.815,-0.845
2703,-0.770,-0.820
2704,-0.720,-0.790
2705,-0.680,-0.750
2706,-0.635,-0.720
2707,-0.595,-0.670
2708,-0.535,-0.600
2709,-0.500,-0.545
2710,-0.465,-0.485
2711,-0.455,-0.445
2712,-0.440,-0.410
2713,-0.440,-0.345
2714,-0.415,-0.300
2715,-0.410,-0.255
2716,-0.395,-0.235
2717,-0.395,-0.220
2718,-0.385,-0.205
2719,-0.375,-0.185
2720,-0.365,-0.160
2721,-0.340,-0.140
2722,-0.340,-0.120
2723,-0.350,-0.120
2724,-0.360,-0.115
2725,-0.360,-0.085
2726,-0.350,-0.055
2727,-0.330,-0.040
2728,-0.325,-0.005
2729,-0.320,0.010
2730,-0.325,0.025
2731,-0.310,0.040
2732,-0.295,0.075
2733,-0.280,0.105
2734,-0.275,0.135
2735,-0.285,0.130
2736,-0.265,0.120
2737,-0.265,0.135
2738,-0.255,0.155
2739,-0.240,0.165
2740,-0.230,0.170
2741,-0.250,0.165
2742,-0.250,0.155
2743,-0.245,0.160
2744,-0.240,0.170
2745,-0.230,0.170
2746,-0.220,0.180
2747,-0.220,0.165
2748,-0.220,0.155
2749,-0.225,0.160
2750,-0.205,0.170
2751,-0.185,0.175
2752,-0.175,0.180
2753,-0.170,0.160
2754,-0.180,0.160
2755,-0.180,0.165
2756,-0.170,0.170
2757,-0.145,0.185
2758,-0.150,0.185
2759,-0.145,0.200
2760,-0.155,0.195
2761,-0.160,0.200
2762,-0.125,0.205
2763,-0.110,0.210
2764,-0.095,0.210
2765,-0.085,0.205
2766,-0.080,0.190
2767,-0.080,0.210
2768,-0.070,0.235
2769,-0.070,0.255
2770,-0.070,0.255
2771,-0.065,0.250
2772,-0.090,0.240
2773,-0.100,0.245
2774,-0.085,0.255
2775,-0.095,0.270
2776,-0.080,0.260
2777,-0.090,0.260
2778,-0.100,0.255
2779,-0.110,0.260
2780,-0.100,0.275
2781,-0.095,0.295
2782,-0.095,0.290
2783,-0.085,0.285
2784,-0.095,0.290
2785,-0.095,0.290
2786,-0.085,0.310
2787,-0.075,0.310
2788,-0.070,0.320
2789,-0.080,0.310
2790,-0.070,0.315
2791,-0.080,0.330
2792,-0.060,0.345
2793,-0.045,0.350
2794,-0.035,0.350
2795,-0.050,0.345
2796,-0.060,0.345
2797,-0.055,0.345
2798,-0.050,0.360
2799,-0.045,0.360
2800,-0.045,0.350
2801,-0.055,0.350
2802,-0.065,0.340
2803,-0.075,0.345
2804,-0.060,0.330
2805,-0.065,0.355
2806,-0.065,0.335
2807,-0.080,0.325
2808,-0.090,0.325
2809,-0.120,0.315
2810,-0.105,0.315
2811,-0.100,0.325
2812,-0.115,0.310
2813,-0.125,0.295
2814,-0.140,0.280
2815,-0.165,0.265
2816,-0.160,0.255
2817,-0.145,0.265
2818,-0.155,0.240
2819,-0.160,0.235
2820,-0.185,0.215
2821,-0.205,0.210
2822,-0.200,0.200
2823,-0.205,0.205
2824,-0.210,0.190
2825,-0.205,0.180
2826,-0.230,0.160
2827,-0.235,0.155
2828,-0.240,0.150
2829,-0.225,0.145
2830,-0.230,0.145
2831,-0.250,0.130
2832,-0.255,0.115
2833,-0.265,0.115
2834,-0.260,0.110
2835,-0.255,0.110
2836,-0.255,0.105
2837,-0.265,0.090
2838,-0.275,0.085
2839,-0.275,0.075
2840,-0.280,0.075
2841,-0.270,0.090
2842,-0.270,0.075
2843,-0.275,0.070
2844,-0.285,0.060
2845,-0.295,0.055
2846,-0.285,0.070
2847,-0.285,0.075
2848,-0.295,0.070
2849,-0.295,0.060
2850,-0.295,0.055
2851,-0.305,0.060
2852,-0.295,0.060
2853,-0.285,0.060
2854,-0.295,0.055
2855,-0.300,0.040
2856,-0.310,0.035
2857,-0.320,0.050
2858,-0.305,0.060
2859,-0.315,0.055
2860,-0.310,0.060
2861,-0.320,0.035
2862,-0.335,0.025
2863,-0.335,0.030
2864,-0.330,0.050
2865,-0.315,0.070
2866,-0.330,0.050
2867,-0.320,0.050
2868,-0.325,0.030
2869,-0.350,0.030
2870,-0.325,0.045
2871,-0.325,0.045
2872,-0.320,0.040
2873,-0.340,0.040
2874,-0.345,0.030
2875,-0.355,0.030
2876,-0.345,0.040
2877,-0.340,0.055
2878,-0.345,0.035
2879,-0.355,0.035
2880,-0.360,0.025
2881,-0.365,0.020
2882,-0.360,0.035
2883,-0.355,0.030
2884,-0.355,0.035
2885,-0.345,0.020
2886,-0.360,0.005
2887,-0.375,0.015
2888,-0.365,0.020
2889,-0.360,0.020
2890,-0.355,0.030
2891,-0.355,0.005
2892,-0.370,0.010
2893,-0.385,0.000
2894,-0.365,0.010
2895,-0.365,0.015
2896,-0.360,0.015
2897,-0.385,-0.005
2898,-0.385,-0.005
2899,-0.385,-0.020
2900,-0.380,0.000
2901,-0.370,0.005
2902,-0.365,0.010
2903,-0.365,-0.005
2904,-0.380,-0.015
2905,-0.385,-0.010
2906,-0.385,-0.015
2907,-0.380,0.005
2908,-0.385,-0.005
2909,-0.385,-0.015
2910,-0.385,-0.035
2911,-0.390,-0.015
2912,-0.385,-0.005
2913,-0.370,-0.015
2914,-0.375,-0.015
2915,-0.370,-0.035
2916,-0.380,-0.035
2917,-0.390,-0.015
2918,-0.380,-0.020
2919,-0.365,-0.005
2920,-0.360,-0.005
2921,-0.355,-0.010
2922,-0.375,-0.030
2923,-0.375,-0.015
2924,-0.370,-0.005
2925,-0.370,0.005
2926,-0.355,-0.005
2927,-0.355,-0.020
2928,-0.360,-0.025
2929,-0.355,-0.015
2930,-0.360,-0.015
2931,-0.340,-0.005
2932,-0.330,-0.010
2933,-0.325,-0.010
2934,-0.320,-0.015
2935,-0.295,-0.010
2936,-0.250,0.020
2937,-0.155,0.055
2938,0.110,0.130
2939,0.550,0.295
2940,0.765,0.620
2941,0.485,0.810
2942,0.115,0.655
2943,-0.060,0.385
2944,-0.065,0.240
2945,-0.060,0.195
2946,-0.070,0.180
2947,-0.100,0.145
2948,-0.125,0.130
2949,-0.125,0.120
2950,-0.130,0.115
2951,-0.135,0.090
2952,-0.145,0.060
2953,-0.145,0.055
2954,-0.160,0.020
2955,-0.165,0.000
2956,-0.175,-0.045
2957,-0.205,-0.070
2958,-0.220,-0.095
2959,-0.240,-0.100
2960,-0.260,-0.105
2961,-0.280,-0.110
2962,-0.330,-0.125
2963,-0.360,-0.150
2964,-0.400,-0.185
2965,-0.445,-0.205
2966,-0.475,-0.205
2967,-0.525,-0.225
2968,-0.590,-0.235
2969,-0.680,-0.260
2970,-0.745,-0.270
2971,-0.805,-0.295
2972,-0.850,-0.280
2973,-0.905,-0.285
2974,-0.950,-0.305
2975,-1.005,-0.335
2976,-1.060,-0.400
2977,-1.055,-0.435
2978,-1.070,-0.485
2979,-1.070,-0.520
2980,-1.070,-0.550
2981,-1.075,-0.590
2982,-1.080,-0.620
2983,-1.080,-0.655
2984,-1.070,-0.680
2985,-1.050,-0.720
2986,-1.040,-0.750
2987,-1.015,-0.795
2988,-0.985,-0.820
2989,-0.945,-0.845
2990,-0.895,-0.850
2991,-0.830,-0.865
2992,-0.770,-0.850
2993,-0.730,-0.835
2994,-0.685,-0.790
2995,-0.645,-0.755
2996,-0.590,-0.700
2997,-0.535,-0.640
2998,-0.505,-0.585
2999,-0.480,-0.530
3000,-0.460,-0.495
3001,-0.435,-0.445
3002,-0.415,-0.365
3003,-0.410,-0.325
3004,-0.395,-0.300
3005,-0.395,-0.280
3006,-0.390,-0.250
3007,-0.390,-0.230
3008,-0.365,-0.190
3009,-0.345,-0.160
3010,-0.335,-0.165
3011,-0.340,-0.155
3012,-0.350,-0.140
3013,-0.360,-0.120
3014,-0.345,-0.095
3015,-0.330,-0.065
3016,-0.320,-0.040
3017,-0.330,-0.045
3018,-0.315,-0.020
3019,-0.305,0.005
3020,-0.275,0.050
3021,-0.270,0.065
3022,-0.260,0.085
3023,-0.255,0.090
3024,-0.255,0.080
3025,-0.255,0.090
3026,-0.240,0.095
3027,-0.215,0.115
3028,-0.210,0.110
3029,-0.210,0.115
3030,-0.220,0.090
3031,-0.225,0.110
3032,-0.210,0.120
3033,-0.195,0.125
3034,-0.190,0.125
3035,-0.185,0.120
3036,-0.185,0.110
3037,-0.200,0.125
3038,-0.180,0.145
3039,-0.175,0.160
3040,-0.165,0.150
3041,-0.165,0.145
3042,-0.180,0.140
3043,-0.175,0.145
3044,-0.160,0.155
3045,-0.150,0.180
3046,-0.155,0.170
3047,-0.165,0.175
3048,-0.150,0.170
3049,-0.155,0.175
3050,-0.130,0.190
3051,-0.125,0.200
3052,-0.115,0.205
3053,-0.115,0.195
3054,-0.120,0.205
3055,-0.135,0.200
3056,-0.110,0.225
3057,-0.100,0.230
3058,-0.095,0.230
3059,-0.110,0.230
3060,-0.105,0.230
3061,-0.105,0.240
3062,-0.090,0.255
3063,-0.095,0.275
3064,-0.085,0.275
3065,-0.085,0.270
3066,-0.080,0.270
3067,-0.080,0.290
3068,-0.055,0.295
3069,-0.045,0.325
3070,-0.040,0.320
3071,-0.060,0.325
3072,-0.055,0.320
3073,-0.050,0.335
3074,-0.040,0.355
3075,-0.030,0.375
3076,-0.020,0.375
3077,-0.020,0.375
3078,-0.030,0.375
3079,-0.040,0.390
3080,-0.020,0.390
3081,-0.010,0.395
3082,0.000,0.395
3083,-0.005,0.385
3084,0.010,0.375
3085,0.005,0.370
3086,0.010,0.375
3087,0.005,0.370
3088,0.010,0.375
3089,0.000,0.360
3090,-0.005,0.345
3091,-0.015,0.325
3092,0.005,0.340
3093,0.000,0.340
3094,0.005,0.335
3095,-0.005,0.325
3096,-0.020,0.300
3097,-0.030,0.295
3098,-0.020,0.300
3099,-0.015,0.290
3100,-0.015,0.290
3101,-0.025,0.270
3102,-0.050,0.260
3103,-0.075,0.230
3104,-0.080,0.235
3105,-0.110,0.235
3106,-0.120,0.215
3107,-0.125,0.195
3108,-0.150,0.160
3109,-0.170,0.170
3110,-0.160,0.165
3111,-0.170,0.160
3112,-0.180,0.150
3113,-0.190,0.115
3114,-0.205,0.105
3115,-0.205,0.100
3116,-0.210,0.110
3117,-0.205,0.115
3118,-0.205,0.100
3119,-0.225,0.090
3120,-0.225,0.070
3121,-0.230,0.065
3122,-0.245,0.085
3123,-0.240,0.070
3124,-0.240,0.060
3125,-0.230,0.065
3126,-0.245,0.055
3127,-0.240,0.050
3128,-0.250,0.050
3129,-0.235,0.055
3130,-0.245,0.055
3131,-0.250,0.040
3132,-0.260,0.035
3133,-0.260,0.035
3134,-0.260,0.045
3135,-0.255,0.055
3136,-0.260,0.045
3137,-0.255,0.030
3138,-0.270,0.025
3139,-0.260,0.025
3140,-0.270,0.030
3141,-0.255,0.035
3142,-0.275,0.050
3143,-0.280,0.025
3144,-0.285,0.015
3145,-0.280,0.020
3146,-0.280,0.025
3147,-0.270,0.040
3148,-0.275,0.040
3149,-0.280,0.030
3150,-0.285,0.010
3151,-0.295,0.020
3152,-0.285,0.025
3153,-0.280,0.030
3154,-0.280,0.035
3155,-0.285,0.020
3156,-0.295,0.010
3157,-0.300,0.015
3158,-0.300,0.010
3159,-0.300,0.025
3160,-0.300,0.025
3161,-0.305,0.005
3162,-0.330,0.000
3163,-0.325,0.000
3164,-0.315,0.005
3165,-0.300,0.010
3166,-0.300,0.010
3167,-0.310,0.000
3168,-0.320,-0.010
3169,-0.325,-0.010
3170,-0.320,0.000
3171,-0.320,0.005
3172,-0.320,0.005
3173,-0.320,-0.015
3174,-0.330,-0.010
3175,-0.350,-0.005
3176,-0.325,-0.005
3177,-0.320,-0.005
3178,-0.335,-0.010
3179,-0.330,-0.020
3180,-0.345,-0.030
3181,-0.355,-0.030
3182,-0.355,-0.025
3183,-0.345,-0.020
3184,-0.345,-0.015
3185,-0.345,-0.030
3186,-0.350,-0.035
3187,-0.350,-0.040
3188,-0.340,-0.020
3189,-0.325,-0.025
3190,-0.325,-0.020
3191,-0.325,-0.035
3192,-0.350,-0.040
3193,-0.360,-0.040
3194,-0.360,-0.030
3195,-0.345,-0.030
3196,-0.345,-0.035
3197,-0.340,-0.035
3198,-0.355,-0.045
3199,-0.360,-0.050
3200,-0.360,-0.035
3201,-0.345,-0.030
3202,-0.340,-0.035
3203,-0.350,-0.045
3204,-0.345,-0.055
3205,-0.355,-0.045
3206,-0.350,-0.045
3207,-0.350,-0.030
3208,-0.335,-0.040
3209,-0.350,-0.055
3210,-0.355,-0.055
3211,-0.365,-0.050
3212,-0.350,-0.050
3213,-0.340,-0.025
3214,-0.345,-0.035
3215,-0.350,-0.050
3216,-0.345,-0.065
3217,-0.350,-0.055
3218,-0.340,-0.055
3219,-0.335,-0.040
3220,-0.335,-0.040
3221,-0.335,-0.050
3222,-0.330,-0.065
3223,-0.340,-0.055
3224,-0.315,-0.035
3225,-0.265,-0.020
3226,-0.235,-0.030
3227,-0.125,-0.010
3228,0.140,0.025
3229,0.595,0.180
3230,0.875,0.515
3231,0.655,0.775
3232,0.225,0.665
3233,-0.020,0.375
3234,-0.065,0.185
3235,-0.025,0.160
3236,-0.030,0.160
3237,-0.050,0.130
3238,-0.085,0.105
3239,-0.105,0.090
3240,-0.120,0.065
3241,-0.135,0.060
3242,-0.125,0.040
3243,-0.130,0.025
3244,-0.140,-0.020
3245,-0.155,-0.060
3246,-0.195,-0.110
3247,-0.205,-0.120
3248,-0.195,-0.135
3249,-0.210,-0.140
3250,-0.220,-0.160
3251,-0.245,-0.185
3252,-0.295,-0.205
3253,-0.335,-0.225
3254,-0.365,-0.240
3255,-0.400,-0.255
3256,-0.450,-0.290
3257,-0.505,-0.315
3258,-0.595,-0.345
3259,-0.695,-0.345
3260,-0.770,-0.350
3261,-0.825,-0.355
3262,-0.845,-0.360
3263,-0.915,-0.375
3264,-0.965,-0.400
3265,-1.025,-0.425
3266,-1.060,-0.440
3267,-1.065,-0.480
3268,-1.070,-0.535
3269,-1.080,-0.600
3270,-1.095,-0.630
3271,-1.095,-0.650
3272,-1.080,-0.650
3273,-1.075,-0.680
3274,-1.070,-0.715
3275,-1.060,-0.770
3276,-1.045,-0.805
3277,-1.035,-0.820
3278,-1.000,-0.830
3279,-0.965,-0.860
3280,-0.920,-0.880
3281,-0.880,-0.910
3282,-0.820,-0.915
3283,-0.770,-0.885
3284,-0.700,-0.840
3285,-0.625,-0.790
3286,-0.575,-0.735
3287,-0.525,-0.705
3288,-0.490,-0.660
3289,-0.465,-0.595
3290,-0.430,-0.510
3291,-0.400,-0.460
3292,-0.380,-0.400
3293,-0.390,-0.370
3294,-0.390,-0.340
3295,-0.395,-0.295
3296,-0.380,-0.250
3297,-0.355,-0.225
3298,-0.335,-0.200
3299,-0.320,-0.185
3300,-0.320,-0.175
3301,-0.350,-0.170
3302,-0.340,-0.135
3303,-0.330,-0.120
3304,-0.335,-0.090
3305,-0.330,-0.080
3306,-0.325,-0.065
3307,-0.305,-0.045
3308,-0.290,0.000
3309,-0.270,0.020
3310,-0.245,0.030
3311,-0.240,0.035
3312,-0.235,0.045
3313,-0.230,0.060
3314,-0.225,0.075
3315,-0.210,0.090
3316,-0.210,0.085
3317,-0.185,0.075
3318,-0.195,0.070
3319,-0.190,0.075
3320,-0.175,0.085
3321,-0.175,0.095
3322,-0.170,0.095
3323,-0.185,0.095
3324,-0.185,0.090
3325,-0.195,0.085
3326,-0.175,0.105
3327,-0.145,0.115
3328,-0.120,0.125
3329,-0.120,0.115
3330,-0.130,0.105
3331,-0.140,0.120
3332,-0.140,0.135
3333,-0.120,0.145
3334,-0.120,0.145
3335,-0.105,0.140
3336,-0.110,0.135
3337,-0.110,0.155
3338,-0.105,0.165
3339,-0.095,0.180
3340,-0.090,0.190
3341,-0.100,0.180
3342,-0.105,0.170
3343,-0.100,0.185
3344,-0.080,0.200
3345,-0.065,0.220
3346,-0.040,0.220
3347,-0.045,0.210
3348,-0.050,0.210
3349,-0.040,0.220
3350,-0.030,0.230
3351,-0.025,0.250
3352,-0.025,0.250
3353,-0.025,0.250
3354,-0.055,0.245
3355,-0.050,0.265
3356,-0.055,0.280
3357,-0.025,0.290
3358,-0.010,0.295
3359,-0.005,0.295
3360,-0.010,0.300
3361,-0.005,0.300
3362,-0.005,0.305
3363,0.005,0.320
3364,0.010,0.320
3365,0.005,0.320
3366,0.015,0.305
3367,0.010,0.325
3368,0.025,0.335
3369,0.025,0.340
3370,0.005,0.335
3371,0.005,0.325
3372,-0.010,0.315
3373,-0.005,0.325
3374,0.005,0.330
3375,0.010,0.325
3376,0.020,0.325
3377,0.020,0.315
3378,0.000,0.300
3379,-0.015,0.305
3380,-0.020,0.300
3381,-0.025,0.295
3382,-0.030,0.290
3383,-0.055,0.275
3384,-0.075,0.255
3385,-0.085,0.255
3386,-0.085,0.260
3387,-0.095,0.245
3388,-0.105,0.220
3389,-0.125,0.200
3390,-0.145,0.185
3391,-0.160,0.175
3392,-0.155,0.185
3393,-0.155,0.185
3394,-0.160,0.165
3395,-0.160,0.145
3396,-0.165,0.120
3397,-0.175,0.120
3398,-0.180,0.120
3399,-0.190,0.120
3400,-0.195,0.105
3401,-0.215,0.095
3402,-0.230,0.085
3403,-0.240,0.080
3404,-0.230,0.090
3405,-0.215,0.085
3406,-0.230,0.075
3407,-0.235,0.070
3408,-0.260,0.065
3409,-0.265,0.065
3410,-0.255,0.070
3411,-0.250,0.075
3412,-0.250,0.070
3413,-0.270,0.055
3414,-0.280,0.040
3415,-0.275,0.045
3416,-0.260,0.045
3417,-0.245,0.060
3418,-0.260,0.040
3419,-0.285,0.030
3420,-0.275,0.020
3421,-0.275,0.020
3422,-0.275,0.030
3423,-0.270,0.025
3424,-0.265,0.025
3425,-0.265,0.020
3426,-0.255,0.005
3427,-0.245,0.010
3428,-0.245,0.015
3429,-0.235,0.010
3430,-0.245,0.015
3431,-0.245,0.005
3432,-0.250,0.000
3433,-0.250,0.005
3434,-0.230,0.005
3435,-0.215,0.010
3436,-0.215,0.010
3437,-0.215,0.005
3438,-0.210,0.000
3439,-0.205,0.015
3440,-0.200,0.020
3441,-0.195,0.030
3442,-0.205,0.025
3443,-0.230,0.000
3444,-0.235,-0.015
3445,-0.255,-0.010
3446,-0.265,0.000
3447,-0.260,-0.015
3448,-0.260,-0.025
3449,-0.280,-0.025
3450,-0.305,-0.035
3451,-0.320,-0.040
3452,-0.310,-0.040
3453,-0.295,-0.025
3454,-0.295,-0.035
3455,-0.300,-0.040
3456,-0.300,-0.045
3457,-0.310,-0.045
3458,-0.315,-0.035
3459,-0.315,-0.030
3460,-0.320,-0.045
3461,-0.315,-0.050
3462,-0.320,-0.075
3463,-0.310,-0.055
3464,-0.315,-0.055
3465,-0.305,-0.045
3466,-0.300,-0.050
3467,-0.310,-0.060
3468,-0.320,-0.065
3469,-0.320,-0.055
3470,-0.310,-0.055
3471,-0.310,-0.060
3472,-0.300,-0.050
3473,-0.325,-0.060
3474,-0.325,-0.075
3475,-0.330,-0.065
3476,-0.320,-0.050
3477,-0.320,-0.065
3478,-0.325,-0.065
3479,-0.325,-0.060
3480,-0.320,-0.090
3481,-0.335,-0.075
3482,-0.325,-0.070
3483,-0.320,-0.070
3484,-0.315,-0.075
3485,-0.315,-0.070
3486,-0.335,-0.100
3487,-0.325,-0.085
3488,-0.315,-0.090
3489,-0.300,-0.065
3490,-0.300,-0.065
3491,-0.305,-0.075
3492,-0.305,-0.080
3493,-0.310,-0.075
3494,-0.300,-0.065
3495,-0.290,-0.060
3496,-0.295,-0.060
3497,-0.290,-0.065
3498,-0.290,-0.080
3499,-0.290,-0.080
3500,-0.280,-0.065
3501,-0.270,-0.065
3502,-0.275,-0.050
3503,-0.275,-0.065
3504,-0.260,-0.060
3505,-0.260,-0.045
3506,-0.250,-0.040
3507,-0.240,-0.020
3508,-0.205,-0.005
3509,-0.150,-0.005
3510,-0.040,0.000
3511,0.160,0.040
3512,0.630,0.125
3513,1.095,0.420
3514,1.085,0.785
3515,0.765,0.775
3516,0.565,0.535
3517,0.605,0.385
3518,0.795,0.355
3519,0.965,0.370
3520,1.120,0.365
3521,1.265,0.340
3522,1.410,0.310
3523,1.500,0.295
3524,1.495,0.240
3525,1.375,0.140
3526,1.160,0.000
3527,0.920,-0.155
3528,0.680,-0.295
3529,0.475,-0.360
3530,0.305,-0.385
3531,0.110,-0.405
3532,-0.085,-0.410
3533,-0.280,-0.400
3534,-0.400,-0.360
3535,-0.465,-0.320
3536,-0.470,-0.270
3537,-0.455,-0.240
3538,-0.460,-0.195
3539,-0.460,-0.165
3540,-0.450,-0.145
3541,-0.455,-0.125
3542,-0.435,-0.095
3543,-0.430,-0.085
3544,-0.415,-0.085
3545,-0.415,-0.090
3546,-0.425,-0.100
3547,-0.425,-0.100
3548,-0.425,-0.090
3549,-0.415,-0.075
3550,-0.405,-0.095
3551,-0.415,-0.090
3552,-0.425,-0.110
3553,-0.435,-0.100
3554,-0.430,-0.095
3555,-0.430,-0.090
3556,-0.425,-0.090
3557,-0.440,-0.095
3558,-0.435,-0.110
3559,-0.450,-0.100
3560,-0.435,-0.095
3561,-0.435,-0.090
3562,-0.445,-0.095
3563,-0.445,-0.110
3564,-0.450,-0.135
3565,-0.460,-0.115
3566,-0.460,-0.115
3567,-0.460,-0.110
3568,-0.470,-0.115
3569,-0.485,-0.120
3570,-0.495,-0.145
3571,-0.500,-0.135
3572,-0.490,-0.120
3573,-0.490,-0.130
3574,-0.490,-0.120
3575,-0.505,-0.140
3576,-0.515,-0.140
3577,-0.520,-0.155
3578,-0.510,-0.140
3579,-0.510,-0.130
3580,-0.515,-0.145
3581,-0.520,-0.155
3582,-0.540,-0.150
3583,-0.535,-0.160
3584,-0.550,-0.155
3585,-0.535,-0.145
3586,-0.540,-0.150
3587,-0.550,-0.170
3588,-0.555,-0.170
3589,-0.560,-0.180
3590,-0.565,-0.160
3591,-0.560,-0.155
3592,-0.570,-0.160
3593,-0.570,-0.180
3594,-0.585,-0.185
3595,-0.585,-0.185
3596,-0.585,-0.180
3597,-0.590,-0.175
3598,-0.585,-0.185
3599,-0.595,-0.190
