0,-0.125,-0.780
1,-0.125,-0.780
2,-0.125,-0.780
3,-0.125,-0.780
4,-0.125,-0.780
5,-0.125,-0.780
6,-0.125,-0.780
7,-0.125,-0.800
8,-0.135,-0.810
9,-0.125,-0.840
10,-0.125,-0.830
11,-0.120,-0.820
12,-0.095,-0.815
13,-0.085,-0.810
14,-0.105,-0.800
15,-0.170,-0.815
16,-0.225,-0.835
17,-0.255,-0.840
18,-0.280,-0.820
19,-0.295,-0.810
20,-0.340,-0.825
21,-0.395,-0.850
22,-0.410,-0.860
23,-0.405,-0.845
24,-0.380,-0.840
25,-0.370,-0.845
26,-0.390,-0.850
27,-0.410,-0.865
28,-0.425,-0.875
29,-0.420,-0.855
30,-0.405,-0.850
31,-0.370,-0.855
32,-0.375,-0.855
33,-0.390,-0.850
34,-0.410,-0.865
35,-0.405,-0.865
36,-0.395,-0.855
37,-0.375,-0.850
38,-0.390,-0.845
39,-0.395,-0.845
40,-0.395,-0.860
41,-0.395,-0.850
42,-0.385,-0.840
43,-0.380,-0.830
44,-0.385,-0.840
45,-0.400,-0.855
46,-0.405,-0.860
47,-0.405,-0.855
48,-0.405,-0.855
49,-0.415,-0.855
50,-0.435,-0.855
51,-0.425,-0.870
52,-0.425,-0.870
53,-0.390,-0.855
54,-0.375,-0.845
55,-0.365,-0.830
56,-0.370,-0.815
57,-0.365,-0.825
58,-0.380,-0.835
59,-0.405,-0.855
60,-0.405,-0.905
61,-0.390,-0.950
62,-0.365,-1.045
63,-0.330,-1.140
64,-0.320,-1.260
65,-0.295,-1.435
66,-0.270,-1.670
67,-0.280,-1.920
68,-0.340,-2.095
69,-0.440,-2.170
70,-0.510,-2.170
71,-0.520,-2.125
72,-0.510,-2.080
73,-0.510,-2.055
74,-0.535,-2.030
75,-0.540,-1.995
76,-0.585,-1.955
77,-0.625,-1.930
78,-0.640,-1.890
79,-0.650,-1.860
80,-0.685,-1.835
81,-0.730,-1.810
82,-0.780,-1.765
83,-0.835,-1.710
84,-0.885,-1.665
85,-0.915,-1.625
86,-0.940,-1.600
87,-0.975,-1.585
88,-0.980,-1.530
89,-0.940,-1.445
90,-0.915,-1.360
91,-0.895,-1.270
92,-0.890,-1.195
93,-0.830,-1.140
94,-0.760,-1.095
95,-0.700,-1.025
96,-0.625,-0.955
97,-0.580,-0.885
98,-0.545,-0.840
99,-0.505,-0.820
100,-0.485,-0.770
101,-0.445,-0.725
102,-0.395,-0.670
103,-0.370,-0.655
104,-0.370,-0.640
105,-0.360,-0.645
106,-0.360,-0.640
107,-0.355,-0.615
108,-0.325,-0.595
109,-0.315,-0.585
110,-0.320,-0.580
111,-0.345,-0.595
112,-0.345,-0.580
113,-0.330,-0.580
114,-0.300,-0.565
115,-0.285,-0.555
116,-0.300,-0.555
117,-0.290,-0.545
118,-0.295,-0.545
119,-0.300,-0.540
120,-0.290,-0.515
121,-0.280,-0.510
122,-0.285,-0.515
123,-0.320,-0.530
124,-0.320,-0.525
125,-0.310,-0.510
126,-0.295,-0.485
127,-0.285,-0.485
128,-0.275,-0.475
129,-0.285,-0.485
130,-0.290,-0.485
131,-0.295,-0.475
132,-0.285,-0.465
133,-0.285,-0.475
134,-0.290,-0.475
135,-0.285,-0.485
136,-0.275,-0.475
137,-0.280,-0.465
138,-0.270,-0.455
139,-0.260,-0.450
140,-0.270,-0.450
141,-0.270,-0.470
142,-0.275,-0.470
143,-0.260,-0.455
144,-0.240,-0.435
145,-0.225,-0.425
146,-0.240,-0.430
147,-0.265,-0.435
148,-0.280,-0.455
149,-0.275,-0.435
150,-0.240,-0.430
151,-0.220,-0.425
152,-0.220,-0.430
153,-0.225,-0.440
154,-0.240,-0.435
155,-0.220,-0.430
156,-0.200,-0.415
157,-0.190,-0.415
158,-0.185,-0.415
159,-0.220,-0.435
160,-0.245,-0.430
161,-0.225,-0.420
162,-0.195,-0.410
163,-0.185,-0.405
164,-0.165,-0.405
165,-0.180,-0.420
166,-0.190,-0.425
167,-0.185,-0.415
168,-0.180,-0.400
169,-0.165,-0.395
170,-0.170,-0.395
171,-0.155,-0.415
172,-0.160,-0.415
173,-0.175,-0.425
174,-0.175,-0.420
175,-0.145,-0.425
176,-0.170,-0.435
177,-0.160,-0.440
178,-0.165,-0.450
179,-0.165,-0.455
180,-0.160,-0.440
181,-0.155,-0.445
182,-0.165,-0.435
183,-0.170,-0.455
184,-0.190,-0.475
185,-0.195,-0.475
186,-0.195,-0.470
187,-0.180,-0.480
188,-0.180,-0.495
189,-0.200,-0.500
190,-0.200,-0.510
191,-0.205,-0.490
192,-0.200,-0.500
193,-0.190,-0.515
194,-0.190,-0.525
195,-0.200,-0.550
196,-0.230,-0.560
197,-0.225,-0.570
198,-0.210,-0.560
199,-0.215,-0.565
200,-0.205,-0.565
201,-0.215,-0.565
202,-0.230,-0.575
203,-0.260,-0.570
204,-0.255,-0.560
205,-0.250,-0.570
206,-0.240,-0.580
207,-0.245,-0.580
208,-0.250,-0.580
209,-0.265,-0.580
210,-0.270,-0.560
211,-0.255,-0.555
212,-0.265,-0.565
213,-0.265,-0.575
214,-0.270,-0.580
215,-0.280,-0.565
216,-0.260,-0.545
217,-0.255,-0.545
218,-0.260,-0.545
219,-0.270,-0.565
220,-0.275,-0.565
221,-0.270,-0.560
222,-0.255,-0.545
223,-0.255,-0.540
224,-0.260,-0.540
225,-0.270,-0.540
226,-0.275,-0.545
227,-0.270,-0.535
228,-0.265,-0.525
229,-0.255,-0.515
230,-0.265,-0.510
231,-0.280,-0.520
232,-0.285,-0.510
233,-0.285,-0.500
234,-0.280,-0.495
235,-0.260,-0.480
236,-0.265,-0.495
237,-0.270,-0.500
238,-0.280,-0.495
239,-0.285,-0.480
240,-0.285,-0.465
241,-0.260,-0.460
242,-0.255,-0.450
243,-0.270,-0.465
244,-0.275,-0.470
245,-0.285,-0.450
246,-0.270,-0.430
247,-0.275,-0.425
248,-0.290,-0.440
249,-0.305,-0.440
250,-0.320,-0.440
251,-0.305,-0.435
252,-0.290,-0.415
253,-0.275,-0.415
254,-0.285,-0.420
255,-0.310,-0.425
256,-0.325,-0.430
257,-0.315,-0.410
258,-0.315,-0.415
259,-0.300,-0.410
260,-0.310,-0.415
261,-0.335,-0.430
262,-0.340,-0.425
263,-0.365,-0.410
264,-0.355,-0.405
265,-0.335,-0.400
266,-0.340,-0.410
267,-0.340,-0.425
268,-0.375,-0.405
269,-0.365,-0.410
270,-0.350,-0.410
271,-0.340,-0.410
272,-0.360,-0.405
273,-0.360,-0.410
274,-0.375,-0.420
275,-0.370,-0.415
276,-0.355,-0.405
277,-0.350,-0.400
278,-0.350,-0.400
279,-0.360,-0.415
280,-0.370,-0.415
281,-0.375,-0.420
282,-0.375,-0.405
283,-0.350,-0.410
284,-0.360,-0.400
285,-0.360,-0.415
286,-0.380,-0.420
287,-0.375,-0.410
288,-0.355,-0.400
289,-0.345,-0.400
290,-0.340,-0.400
291,-0.345,-0.415
292,-0.355,-0.415
293,-0.360,-0.405
294,-0.345,-0.390
295,-0.335,-0.380
296,-0.345,-0.395
297,-0.340,-0.405
298,-0.340,-0.395
299,-0.340,-0.395
300,-0.330,-0.380
301,-0.330,-0.385
302,-0.325,-0.400
303,-0.330,-0.395
304,-0.335,-0.400
305,-0.330,-0.375
306,-0.310,-0.375
307,-0.295,-0.380
308,-0.300,-0.385
309,-0.320,-0.395
310,-0.330,-0.405
311,-0.345,-0.390
312,-0.325,-0.385
313,-0.315,-0.380
314,-0.310,-0.380
315,-0.315,-0.385
316,-0.345,-0.385
317,-0.330,-0.385
318,-0.310,-0.375
319,-0.290,-0.370
320,-0.315,-0.380
321,-0.335,-0.395
322,-0.335,-0.395
323,-0.345,-0.370
324,-0.325,-0.360
325,-0.305,-0.365
326,-0.300,-0.365
327,-0.305,-0.370
328,-0.305,-0.380
329,-0.315,-0.360
330,-0.300,-0.350
331,-0.290,-0.345
332,-0.300,-0.350
333,-0.320,-0.345
334,-0.325,-0.355
335,-0.320,-0.350
336,-0.305,-0.335
337,-0.305,-0.325
338,-0.310,-0.320
339,-0.310,-0.350
340,-0.310,-0.350
341,-0.305,-0.355
342,-0.300,-0.345
343,-0.280,-0.325
344,-0.265,-0.330
345,-0.275,-0.320
346,-0.280,-0.305
347,-0.265,-0.315
348,-0.250,-0.290
349,-0.235,-0.275
350,-0.225,-0.260
351,-0.225,-0.255
352,-0.230,-0.255
353,-0.200,-0.240
354,-0.180,-0.235
355,-0.155,-0.235
356,-0.145,-0.250
357,-0.150,-0.285
358,-0.150,-0.300
359,-0.120,-0.285
360,-0.105,-0.270
361,-0.095,-0.280
362,-0.085,-0.290
363,-0.090,-0.290
364,-0.095,-0.305
365,-0.095,-0.300
366,-0.075,-0.285
367,-0.055,-0.280
368,-0.050,-0.270
369,-0.065,-0.285
370,-0.110,-0.280
371,-0.135,-0.275
372,-0.165,-0.270
373,-0.185,-0.275
374,-0.220,-0.285
375,-0.275,-0.295
376,-0.320,-0.305
377,-0.350,-0.300
378,-0.370,-0.310
379,-0.350,-0.305
380,-0.350,-0.315
381,-0.355,-0.325
382,-0.360,-0.330
383,-0.365,-0.320
384,-0.360,-0.305
385,-0.345,-0.300
386,-0.340,-0.305
387,-0.355,-0.310
388,-0.370,-0.325
389,-0.380,-0.320
390,-0.390,-0.290
391,-0.360,-0.295
392,-0.340,-0.290
393,-0.320,-0.295
394,-0.340,-0.295
395,-0.360,-0.290
396,-0.355,-0.280
397,-0.345,-0.285
398,-0.340,-0.295
399,-0.355,-0.300
400,-0.350,-0.305
401,-0.350,-0.285
402,-0.345,-0.280
403,-0.350,-0.280
404,-0.355,-0.295
405,-0.370,-0.305
406,-0.370,-0.300
407,-0.360,-0.295
408,-0.345,-0.275
409,-0.330,-0.275
410,-0.330,-0.265
411,-0.350,-0.280
412,-0.360,-0.270
413,-0.370,-0.270
414,-0.375,-0.290
415,-0.385,-0.360
416,-0.390,-0.435
417,-0.375,-0.525
418,-0.345,-0.625
419,-0.315,-0.750
420,-0.275,-0.940
421,-0.250,-1.195
422,-0.265,-1.460
423,-0.340,-1.660
424,-0.425,-1.705
425,-0.495,-1.665
426,-0.510,-1.605
427,-0.495,-1.570
428,-0.485,-1.530
429,-0.495,-1.510
430,-0.530,-1.460
431,-0.575,-1.410
432,-0.600,-1.375
433,-0.630,-1.355
434,-0.655,-1.330
435,-0.680,-1.295
436,-0.725,-1.260
437,-0.780,-1.200
438,-0.845,-1.145
439,-0.900,-1.095
440,-0.915,-1.065
441,-0.935,-1.025
442,-0.935,-0.970
443,-0.915,-0.875
444,-0.880,-0.755
445,-0.855,-0.685
446,-0.820,-0.615
447,-0.755,-0.560
448,-0.685,-0.475
449,-0.610,-0.410
450,-0.550,-0.330
451,-0.510,-0.265
452,-0.480,-0.215
453,-0.440,-0.180
454,-0.390,-0.140
455,-0.355,-0.080
456,-0.315,-0.045
457,-0.300,-0.025
458,-0.300,-0.005
459,-0.300,-0.010
460,-0.300,0.005
461,-0.290,0.005
462,-0.275,0.020
463,-0.265,0.040
464,-0.275,0.045
465,-0.290,0.040
466,-0.300,0.045
467,-0.275,0.065
468,-0.255,0.080
469,-0.245,0.085
470,-0.260,0.095
471,-0.280,0.095
472,-0.275,0.085
473,-0.260,0.110
474,-0.245,0.120
475,-0.240,0.120
476,-0.250,0.130
477,-0.245,0.115
478,-0.260,0.120
479,-0.265,0.130
480,-0.270,0.145
481,-0.240,0.160
482,-0.230,0.155
483,-0.220,0.140
484,-0.225,0.145
485,-0.220,0.160
486,-0.225,0.170
487,-0.225,0.175
488,-0.225,0.160
489,-0.240,0.160
490,-0.240,0.165
491,-0.240,0.175
492,-0.230,0.195
493,-0.200,0.195
494,-0.195,0.190
495,-0.200,0.195
496,-0.215,0.195
497,-0.230,0.200
498,-0.215,0.215
499,-0.180,0.220
500,-0.180,0.225
501,-0.185,0.200
502,-0.195,0.205
503,-0.200,0.210
504,-0.195,0.215
505,-0.175,0.230
506,-0.155,0.220
507,-0.155,0.205
508,-0.175,0.220
509,-0.170,0.220
510,-0.145,0.230
511,-0.140,0.230
512,-0.150,0.220
513,-0.160,0.205
514,-0.155,0.215
515,-0.140,0.225
516,-0.135,0.225
517,-0.115,0.225
518,-0.120,0.220
519,-0.110,0.210
520,-0.115,0.210
521,-0.110,0.210
522,-0.110,0.225
523,-0.095,0.215
524,-0.110,0.205
525,-0.115,0.190
526,-0.130,0.190
527,-0.120,0.190
528,-0.105,0.190
529,-0.100,0.195
530,-0.110,0.180
531,-0.115,0.170
532,-0.120,0.160
533,-0.105,0.170
534,-0.085,0.165
535,-0.090,0.155
536,-0.100,0.145
537,-0.115,0.115
538,-0.130,0.115
539,-0.125,0.115
540,-0.100,0.110
541,-0.100,0.100
542,-0.115,0.085
543,-0.130,0.065
544,-0.145,0.060
545,-0.155,0.050
546,-0.160,0.030
547,-0.140,0.035
548,-0.140,0.030
549,-0.145,0.000
550,-0.165,-0.005
551,-0.190,0.000
552,-0.195,0.000
553,-0.170,-0.010
554,-0.165,-0.015
555,-0.180,-0.025
556,-0.190,-0.035
557,-0.205,-0.020
558,-0.200,-0.010
559,-0.170,-0.020
560,-0.190,-0.015
561,-0.205,-0.015
562,-0.210,-0.035
563,-0.215,-0.025
564,-0.215,-0.010
565,-0.205,-0.015
566,-0.205,-0.010
567,-0.215,-0.025
568,-0.225,-0.030
569,-0.210,-0.015
570,-0.200,0.005
571,-0.195,-0.005
572,-0.210,-0.020
573,-0.225,-0.015
574,-0.240,-0.010
575,-0.240,-0.005
576,-0.240,0.005
577,-0.245,-0.005
578,-0.245,0.010
579,-0.230,0.000
580,-0.225,-0.005
581,-0.220,0.005
582,-0.225,0.025
583,-0.235,0.040
584,-0.235,0.035
585,-0.260,0.015
586,-0.265,0.020
587,-0.250,0.015
588,-0.235,0.035
589,-0.225,0.035
590,-0.235,0.035
591,-0.250,0.035
592,-0.285,0.035
593,-0.280,0.060
594,-0.260,0.055
595,-0.250,0.065
596,-0.260,0.055
597,-0.270,0.050
598,-0.275,0.045
599,-0.285,0.070
600,-0.265,0.080
601,-0.260,0.080
602,-0.270,0.080
603,-0.300,0.060
604,-0.305,0.065
605,-0.300,0.075
606,-0.310,0.075
607,-0.290,0.080
608,-0.270,0.070
609,-0.300,0.075
610,-0.320,0.060
611,-0.310,0.070
612,-0.305,0.080
613,-0.285,0.075
614,-0.285,0.075
615,-0.295,0.070
616,-0.315,0.055
617,-0.320,0.070
618,-0.320,0.080
619,-0.315,0.085
620,-0.320,0.085
621,-0.315,0.065
622,-0.340,0.060
623,-0.335,0.080
624,-0.315,0.075
625,-0.310,0.065
626,-0.320,0.070
627,-0.335,0.055
628,-0.340,0.050
629,-0.345,0.065
630,-0.330,0.060
631,-0.315,0.065
632,-0.320,0.055
633,-0.325,0.045
634,-0.340,0.045
635,-0.345,0.050
636,-0.340,0.075
637,-0.330,0.070
638,-0.330,0.070
639,-0.310,0.055
640,-0.315,0.050
641,-0.305,0.065
642,-0.310,0.065
643,-0.310,0.065
644,-0.305,0.075
645,-0.315,0.060
646,-0.320,0.055
647,-0.305,0.075
648,-0.300,0.080
649,-0.300,0.080
650,-0.305,0.065
651,-0.305,0.060
652,-0.320,0.045
653,-0.320,0.065
654,-0.310,0.075
655,-0.310,0.070
656,-0.305,0.065
657,-0.295,0.055
658,-0.295,0.065
659,-0.300,0.070
660,-0.295,0.090
661,-0.300,0.080
662,-0.295,0.075
663,-0.305,0.070
664,-0.305,0.065
665,-0.285,0.070
666,-0.275,0.085
667,-0.290,0.085
668,-0.285,0.080
669,-0.285,0.070
670,-0.315,0.055
671,-0.300,0.070
672,-0.290,0.090
673,-0.285,0.080
674,-0.295,0.090
675,-0.300,0.075
676,-0.290,0.070
677,-0.285,0.085
678,-0.265,0.095
679,-0.270,0.085
680,-0.280,0.085
681,-0.290,0.090
682,-0.295,0.075
683,-0.300,0.085
684,-0.285,0.090
685,-0.275,0.095
686,-0.270,0.085
687,-0.270,0.085
688,-0.285,0.080
689,-0.290,0.080
690,-0.280,0.090
691,-0.275,0.100
692,-0.275,0.100
693,-0.275,0.090
694,-0.275,0.105
695,-0.260,0.120
696,-0.225,0.130
697,-0.205,0.140
698,-0.200,0.150
699,-0.205,0.150
700,-0.215,0.160
701,-0.205,0.185
702,-0.200,0.190
703,-0.175,0.190
704,-0.150,0.200
705,-0.120,0.180
706,-0.115,0.170
707,-0.090,0.150
708,-0.085,0.155
709,-0.065,0.155
710,-0.065,0.145
711,-0.085,0.130
712,-0.080,0.120
713,-0.040,0.130
714,0.005,0.135
715,0.010,0.140
716,0.005,0.145
717,-0.010,0.155
718,-0.040,0.150
719,-0.080,0.160
720,-0.120,0.150
721,-0.135,0.140
722,-0.175,0.130
723,-0.215,0.120
724,-0.265,0.110
725,-0.305,0.105
726,-0.315,0.110
727,-0.315,0.095
728,-0.315,0.100
729,-0.305,0.095
730,-0.320,0.085
731,-0.315,0.100
732,-0.305,0.110
733,-0.290,0.110
734,-0.305,0.110
735,-0.315,0.105
736,-0.325,0.100
737,-0.315,0.105
738,-0.315,0.115
739,-0.305,0.110
740,-0.310,0.110
741,-0.310,0.090
742,-0.315,0.090
743,-0.320,0.100
744,-0.315,0.105
745,-0.305,0.110
746,-0.285,0.100
747,-0.285,0.100
748,-0.310,0.090
749,-0.320,0.110
750,-0.320,0.115
751,-0.310,0.110
752,-0.345,0.105
753,-0.340,0.085
754,-0.350,0.085
755,-0.345,0.100
756,-0.345,0.115
757,-0.320,0.110
758,-0.315,0.100
759,-0.315,0.105
760,-0.345,0.110
761,-0.340,0.120
762,-0.320,0.095
763,-0.315,0.020
764,-0.325,-0.060
765,-0.350,-0.175
766,-0.340,-0.295
767,-0.320,-0.425
768,-0.285,-0.605
769,-0.270,-0.855
770,-0.265,-1.140
771,-0.280,-1.355
772,-0.350,-1.440
773,-0.425,-1.405
774,-0.465,-1.340
775,-0.470,-1.290
776,-0.490,-1.240
777,-0.510,-1.200
778,-0.530,-1.155
779,-0.565,-1.105
780,-0.605,-1.075
781,-0.625,-1.055
782,-0.655,-1.020
783,-0.680,-0.990
784,-0.705,-0.940
785,-0.760,-0.895
786,-0.820,-0.840
787,-0.860,-0.770
788,-0.900,-0.720
789,-0.915,-0.685
790,-0.925,-0.620
791,-0.895,-0.535
792,-0.840,-0.430
793,-0.815,-0.350
794,-0.790,-0.275
795,-0.745,-0.210
796,-0.670,-0.155
797,-0.580,-0.065
798,-0.515,0.000
799,-0.475,0.055
800,-0.460,0.110
801,-0.425,0.145
802,-0.395,0.195
803,-0.345,0.240
804,-0.315,0.280
805,-0.295,0.290
806,-0.290,0.305
807,-0.280,0.310
808,-0.280,0.315
809,-0.285,0.325
810,-0.270,0.345
811,-0.260,0.340
812,-0.255,0.355
813,-0.265,0.350
814,-0.265,0.345
815,-0.265,0.360
816,-0.265,0.385
817,-0.265,0.380
818,-0.260,0.395
819,-0.270,0.385
820,-0.285,0.395
821,-0.260,0.405
822,-0.215,0.415
823,-0.190,0.405
824,-0.210,0.400
825,-0.230,0.410
826,-0.255,0.400
827,-0.255,0.415
828,-0.230,0.410
829,-0.235,0.430
830,-0.235,0.420
831,-0.245,0.420
832,-0.230,0.410
833,-0.215,0.430
834,-0.220,0.435
835,-0.220,0.440
836,-0.220,0.435
837,-0.225,0.435
838,-0.230,0.440
839,-0.225,0.440
840,-0.205,0.455
841,-0.190,0.455
842,-0.200,0.460
843,-0.215,0.435
844,-0.230,0.445
845,-0.220,0.445
846,-0.185,0.455
847,-0.170,0.460
848,-0.160,0.460
849,-0.180,0.440
850,-0.200,0.430
851,-0.205,0.445
852,-0.175,0.460
853,-0.135,0.450
854,-0.110,0.445
855,-0.145,0.445
856,-0.175,0.435
857,-0.180,0.440
858,-0.155,0.460
859,-0.135,0.465
860,-0.125,0.445
861,-0.145,0.440
862,-0.150,0.440
863,-0.140,0.450
864,-0.145,0.450
865,-0.120,0.440
866,-0.095,0.435
867,-0.100,0.420
868,-0.120,0.410
869,-0.105,0.415
870,-0.110,0.415
871,-0.110,0.410
872,-0.115,0.395
873,-0.115,0.370
874,-0.125,0.370
875,-0.105,0.395
876,-0.095,0.395
877,-0.090,0.395
878,-0.085,0.380
879,-0.100,0.370
880,-0.130,0.350
881,-0.150,0.360
882,-0.140,0.345
883,-0.110,0.345
884,-0.070,0.335
885,-0.065,0.315
886,-0.105,0.315
887,-0.135,0.300
888,-0.140,0.315
889,-0.110,0.300
890,-0.090,0.285
891,-0.105,0.260
892,-0.125,0.255
893,-0.130,0.250
894,-0.145,0.250
895,-0.130,0.230
896,-0.150,0.235
897,-0.180,0.210
898,-0.185,0.220
899,-0.190,0.215
900,-0.185,0.230
901,-0.170,0.215
902,-0.175,0.210
903,-0.200,0.190
904,-0.210,0.185
905,-0.215,0.200
906,-0.210,0.205
907,-0.210,0.210
908,-0.225,0.205
909,-0.235,0.185
910,-0.245,0.185
911,-0.250,0.195
912,-0.230,0.210
913,-0.220,0.195
914,-0.225,0.200
915,-0.235,0.190
916,-0.265,0.195
917,-0.255,0.200
918,-0.250,0.215
919,-0.240,0.215
920,-0.240,0.225
921,-0.255,0.205
922,-0.270,0.205
923,-0.275,0.210
924,-0.265,0.225
925,-0.250,0.220
926,-0.265,0.225
927,-0.270,0.210
928,-0.300,0.205
929,-0.275,0.215
930,-0.265,0.230
931,-0.265,0.230
932,-0.260,0.220
933,-0.270,0.215
934,-0.295,0.205
935,-0.295,0.225
936,-0.285,0.240
937,-0.275,0.235
938,-0.275,0.230
939,-0.295,0.225
940,-0.310,0.230
941,-0.325,0.235
942,-0.310,0.245
943,-0.290,0.245
944,-0.290,0.240
945,-0.295,0.235
946,-0.305,0.235
947,-0.315,0.230
948,-0.310,0.250
949,-0.305,0.245
950,-0.290,0.240
951,-0.310,0.230
952,-0.335,0.235
953,-0.345,0.235
954,-0.345,0.245
955,-0.335,0.235
956,-0.330,0.240
957,-0.330,0.225
958,-0.340,0.225
959,-0.350,0.235
960,-0.345,0.240
961,-0.330,0.240
962,-0.330,0.235
963,-0.345,0.225
964,-0.375,0.220
965,-0.360,0.215
966,-0.350,0.245
967,-0.340,0.235
968,-0.345,0.220
969,-0.370,0.210
970,-0.370,0.195
971,-0.360,0.205
972,-0.365,0.220
973,-0.345,0.210
974,-0.355,0.210
975,-0.370,0.190
976,-0.370,0.200
977,-0.375,0.195
978,-0.355,0.210
979,-0.345,0.215
980,-0.340,0.205
981,-0.350,0.200
982,-0.365,0.205
983,-0.370,0.210
984,-0.365,0.210
985,-0.355,0.205
986,-0.365,0.195
987,-0.375,0.210
988,-0.370,0.200
989,-0.365,0.205
990,-0.340,0.215
991,-0.315,0.205
992,-0.335,0.210
993,-0.350,0.200
994,-0.365,0.200
995,-0.350,0.200
996,-0.350,0.210
997,-0.335,0.220
998,-0.340,0.200
999,-0.355,0.190
1000,-0.350,0.205
1001,-0.335,0.215
1002,-0.340,0.200
1003,-0.330,0.205
1004,-0.350,0.195
1005,-0.355,0.200
1006,-0.350,0.210
1007,-0.325,0.220
1008,-0.315,0.215
1009,-0.325,0.200
1010,-0.340,0.195
1011,-0.365,0.180
1012,-0.360,0.185
1013,-0.340,0.205
1014,-0.325,0.205
1015,-0.320,0.215
1016,-0.330,0.190
1017,-0.340,0.195
1018,-0.355,0.195
1019,-0.330,0.200
1020,-0.320,0.205
1021,-0.325,0.200
1022,-0.335,0.190
1023,-0.325,0.200
1024,-0.330,0.200
1025,-0.325,0.215
1026,-0.320,0.205
1027,-0.330,0.210
1028,-0.340,0.200
1029,-0.345,0.190
1030,-0.325,0.195
1031,-0.310,0.200
1032,-0.310,0.200
1033,-0.310,0.195
1034,-0.310,0.200
1035,-0.325,0.190
1036,-0.320,0.200
1037,-0.305,0.205
1038,-0.300,0.210
1039,-0.305,0.205
1040,-0.335,0.195
1041,-0.335,0.190
1042,-0.335,0.200
1043,-0.305,0.210
1044,-0.290,0.215
1045,-0.300,0.230
1046,-0.315,0.200
1047,-0.335,0.205
1048,-0.320,0.205
1049,-0.305,0.230
1050,-0.290,0.230
1051,-0.295,0.225
1052,-0.300,0.205
1053,-0.320,0.210
1054,-0.305,0.215
1055,-0.285,0.250
1056,-0.280,0.240
1057,-0.275,0.245
1058,-0.265,0.245
1059,-0.250,0.240
1060,-0.230,0.280
1061,-0.220,0.300
1062,-0.210,0.295
1063,-0.195,0.300
1064,-0.190,0.295
1065,-0.180,0.300
1066,-0.165,0.300
1067,-0.135,0.300
1068,-0.110,0.295
1069,-0.090,0.275
1070,-0.095,0.265
1071,-0.100,0.265
1072,-0.110,0.250
1073,-0.115,0.250
1074,-0.090,0.255
1075,-0.075,0.245
1076,-0.075,0.240
1077,-0.070,0.230
1078,-0.055,0.250
1079,-0.040,0.260
1080,-0.065,0.240
1081,-0.115,0.245
1082,-0.165,0.235
1083,-0.225,0.220
1084,-0.245,0.240
1085,-0.285,0.245
1086,-0.305,0.230
1087,-0.350,0.220
1088,-0.365,0.215
1089,-0.370,0.190
1090,-0.355,0.200
1091,-0.350,0.210
1092,-0.345,0.200
1093,-0.345,0.190
1094,-0.360,0.190
1095,-0.360,0.190
1096,-0.350,0.195
1097,-0.340,0.210
1098,-0.335,0.210
1099,-0.355,0.195
1100,-0.365,0.180
1101,-0.380,0.180
1102,-0.370,0.185
1103,-0.355,0.210
1104,-0.330,0.205
1105,-0.340,0.200
1106,-0.350,0.175
1107,-0.355,0.185
1108,-0.355,0.190
1109,-0.350,0.210
1110,-0.340,0.200
1111,-0.345,0.205
1112,-0.355,0.190
1113,-0.360,0.190
1114,-0.350,0.200
1115,-0.350,0.195
1116,-0.330,0.195
1117,-0.335,0.195
1118,-0.355,0.185
1119,-0.365,0.175
1120,-0.355,0.190
1121,-0.355,0.195
1122,-0.350,0.195
1123,-0.345,0.195
1124,-0.340,0.200
1125,-0.340,0.200
1126,-0.350,0.185
1127,-0.360,0.160
1128,-0.370,0.095
1129,-0.380,0.025
1130,-0.345,-0.070
1131,-0.325,-0.180
1132,-0.280,-0.310
1133,-0.240,-0.515
1134,-0.220,-0.760
1135,-0.245,-1.025
1136,-0.320,-1.200
1137,-0.440,-1.255
1138,-0.515,-1.225
1139,-0.515,-1.170
1140,-0.510,-1.135
1141,-0.500,-1.105
1142,-0.505,-1.080
1143,-0.555,-1.040
1144,-0.600,-0.995
1145,-0.635,-0.950
1146,-0.650,-0.945
1147,-0.675,-0.905
1148,-0.705,-0.865
1149,-0.745,-0.830
1150,-0.785,-0.775
1151,-0.845,-0.720
1152,-0.870,-0.670
1153,-0.900,-0.635
1154,-0.935,-0.605
1155,-0.945,-0.545
1156,-0.910,-0.440
1157,-0.870,-0.345
1158,-0.845,-0.260
1159,-0.820,-0.200
1160,-0.765,-0.130
1161,-0.690,-0.055
1162,-0.610,0.020
1163,-0.550,0.095
1164,-0.515,0.160
1165,-0.475,0.195
1166,-0.440,0.230
1167,-0.385,0.270
1168,-0.370,0.320
1169,-0.330,0.350
1170,-0.305,0.390
1171,-0.280,0.400
1172,-0.280,0.405
1173,-0.295,0.405
1174,-0.305,0.420
1175,-0.290,0.435
1176,-0.280,0.455
1177,-0.290,0.440
1178,-0.290,0.455
1179,-0.290,0.445
1180,-0.285,0.465
1181,-0.275,0.490
1182,-0.270,0.490
1183,-0.285,0.475
1184,-0.280,0.480
1185,-0.300,0.475
1186,-0.300,0.495
1187,-0.270,0.510
1188,-0.255,0.520
1189,-0.260,0.525
1190,-0.260,0.505
1191,-0.280,0.525
1192,-0.270,0.530
1193,-0.270,0.545
1194,-0.255,0.540
1195,-0.270,0.530
1196,-0.260,0.530
1197,-0.280,0.525
1198,-0.275,0.535
1199,-0.270,0.535
1200,-0.250,0.540
1201,-0.240,0.545
1202,-0.235,0.540
1203,-0.265,0.540
1204,-0.265,0.545
1205,-0.245,0.565
1206,-0.245,0.565
1207,-0.240,0.550
1208,-0.240,0.560
1209,-0.245,0.550
1210,-0.235,0.560
1211,-0.205,0.575
1212,-0.185,0.575
1213,-0.200,0.580
1214,-0.205,0.570
1215,-0.220,0.575
1216,-0.215,0.585
1217,-0.205,0.585
1218,-0.200,0.585
1219,-0.200,0.585
1220,-0.195,0.570
1221,-0.195,0.565
1222,-0.185,0.565
1223,-0.180,0.580
1224,-0.180,0.575
1225,-0.170,0.570
1226,-0.170,0.555
1227,-0.190,0.550
1228,-0.195,0.555
1229,-0.160,0.570
1230,-0.150,0.565
1231,-0.135,0.560
1232,-0.160,0.545
1233,-0.170,0.550
1234,-0.160,0.530
1235,-0.150,0.545
1236,-0.130,0.545
1237,-0.130,0.525
1238,-0.150,0.520
1239,-0.155,0.505
1240,-0.160,0.500
1241,-0.150,0.505
1242,-0.160,0.505
1243,-0.160,0.485
1244,-0.150,0.465
1245,-0.145,0.445
1246,-0.150,0.455
1247,-0.150,0.455
1248,-0.140,0.440
1249,-0.155,0.425
1250,-0.150,0.410
1251,-0.175,0.405
1252,-0.180,0.390
1253,-0.170,0.380
1254,-0.175,0.370
1255,-0.180,0.350
1256,-0.200,0.325
1257,-0.215,0.315
1258,-0.215,0.320
1259,-0.210,0.315
1260,-0.200,0.310
1261,-0.210,0.290
1262,-0.215,0.280
1263,-0.235,0.265
1264,-0.245,0.270
1265,-0.240,0.270
1266,-0.250,0.280
1267,-0.255,0.275
1268,-0.250,0.255
1269,-0.265,0.245
1270,-0.260,0.265
1271,-0.250,0.260
1272,-0.255,0.260
1273,-0.240,0.260
1274,-0.240,0.245
1275,-0.255,0.240
1276,-0.265,0.245
1277,-0.270,0.265
1278,-0.255,0.255
1279,-0.255,0.255
1280,-0.250,0.260
1281,-0.250,0.250
1282,-0.255,0.265
1283,-0.260,0.270
1284,-0.245,0.270
1285,-0.250,0.280
1286,-0.250,0.270
1287,-0.275,0.265
1288,-0.265,0.280
1289,-0.265,0.295
1290,-0.250,0.305
1291,-0.255,0.300
1292,-0.270,0.295
1293,-0.275,0.285
1294,-0.270,0.300
1295,-0.280,0.315
1296,-0.265,0.300
1297,-0.265,0.300
1298,-0.280,0.285
1299,-0.285,0.295
1300,-0.290,0.305
1301,-0.270,0.320
1302,-0.260,0.315
1303,-0.275,0.325
1304,-0.300,0.325
1305,-0.295,0.315
1306,-0.275,0.330
1307,-0.275,0.345
1308,-0.275,0.345
1309,-0.275,0.350
1310,-0.290,0.335
1311,-0.315,0.320
1312,-0.305,0.340
1313,-0.315,0.345
1314,-0.290,0.340
1315,-0.285,0.350
1316,-0.305,0.335
1317,-0.310,0.315
1318,-0.320,0.335
1319,-0.305,0.325
1320,-0.315,0.330
1321,-0.310,0.320
1322,-0.345,0.315
1323,-0.355,0.315
1324,-0.350,0.330
1325,-0.335,0.340
1326,-0.315,0.350
1327,-0.315,0.340
1328,-0.350,0.335
1329,-0.350,0.325
1330,-0.335,0.330
1331,-0.335,0.335
1332,-0.325,0.330
1333,-0.325,0.315
1334,-0.340,0.310
1335,-0.350,0.315
1336,-0.355,0.315
1337,-0.350,0.320
1338,-0.335,0.310
1339,-0.335,0.310
1340,-0.340,0.300
1341,-0.375,0.295
1342,-0.370,0.295
1343,-0.345,0.320
1344,-0.310,0.320
1345,-0.305,0.320
1346,-0.320,0.305
1347,-0.335,0.300
1348,-0.330,0.315
1349,-0.315,0.315
1350,-0.300,0.315
1351,-0.290,0.310
1352,-0.305,0.305
1353,-0.320,0.305
1354,-0.310,0.305
1355,-0.320,0.320
1356,-0.310,0.325
1357,-0.315,0.305
1358,-0.330,0.300
1359,-0.320,0.290
1360,-0.320,0.310
1361,-0.310,0.320
1362,-0.290,0.320
1363,-0.305,0.315
1364,-0.300,0.310
1365,-0.315,0.305
1366,-0.315,0.300
1367,-0.320,0.315
1368,-0.310,0.305
1369,-0.305,0.300
1370,-0.305,0.310
1371,-0.310,0.290
1372,-0.295,0.300
1373,-0.280,0.310
1374,-0.280,0.320
1375,-0.290,0.295
1376,-0.315,0.280
1377,-0.340,0.280
1378,-0.340,0.300
1379,-0.315,0.315
1380,-0.270,0.310
1381,-0.260,0.300
1382,-0.270,0.300
1383,-0.290,0.300
1384,-0.285,0.310
1385,-0.290,0.315
1386,-0.280,0.315
1387,-0.280,0.310
1388,-0.300,0.290
1389,-0.300,0.295
1390,-0.310,0.295
1391,-0.290,0.305
1392,-0.280,0.305
1393,-0.285,0.285
1394,-0.290,0.295
1395,-0.305,0.290
1396,-0.310,0.300
1397,-0.280,0.315
1398,-0.260,0.305
1399,-0.255,0.315
1400,-0.240,0.320
1401,-0.245,0.330
1402,-0.235,0.350
1403,-0.220,0.370
1404,-0.215,0.375
1405,-0.210,0.395
1406,-0.200,0.380
1407,-0.185,0.385
1408,-0.170,0.400
1409,-0.140,0.400
1410,-0.125,0.380
1411,-0.115,0.355
1412,-0.105,0.325
1413,-0.100,0.325
1414,-0.080,0.330
1415,-0.065,0.340
1416,-0.055,0.335
1417,-0.060,0.330
1418,-0.060,0.310
1419,-0.060,0.320
1420,-0.065,0.330
1421,-0.060,0.355
1422,-0.055,0.360
1423,-0.070,0.340
1424,-0.090,0.330
1425,-0.145,0.315
1426,-0.190,0.320
1427,-0.225,0.320
1428,-0.270,0.315
1429,-0.310,0.295
1430,-0.345,0.265
1431,-0.360,0.265
1432,-0.360,0.270
1433,-0.345,0.285
1434,-0.320,0.285
1435,-0.315,0.275
1436,-0.325,0.255
1437,-0.340,0.270
1438,-0.345,0.265
1439,-0.345,0.285
1440,-0.340,0.275
1441,-0.345,0.280
1442,-0.370,0.265
1443,-0.365,0.260
1444,-0.345,0.265
1445,-0.335,0.275
1446,-0.315,0.280
1447,-0.325,0.270
1448,-0.345,0.255
1449,-0.370,0.265
1450,-0.360,0.270
1451,-0.335,0.270
1452,-0.340,0.270
1453,-0.340,0.265
1454,-0.335,0.260
1455,-0.360,0.255
1456,-0.360,0.265
1457,-0.350,0.275
1458,-0.330,0.265
1459,-0.335,0.275
1460,-0.325,0.260
1461,-0.335,0.260
1462,-0.340,0.280
1463,-0.345,0.290
1464,-0.325,0.290
1465,-0.325,0.285
1466,-0.340,0.230
1467,-0.375,0.160
1468,-0.390,0.095
1469,-0.370,0.000
1470,-0.330,-0.125
1471,-0.310,-0.305
1472,-0.300,-0.560
1473,-0.290,-0.845
1474,-0.295,-1.110
1475,-0.345,-1.245
1476,-0.445,-1.255
1477,-0.495,-1.205
1478,-0.525,-1.170
1479,-0.530,-1.130
1480,-0.515,-1.080
1481,-0.525,-1.025
1482,-0.540,-0.965
1483,-0.595,-0.945
1484,-0.640,-0.925
1485,-0.690,-0.925
1486,-0.710,-0.870
1487,-0.730,-0.805
1488,-0.760,-0.755
1489,-0.825,-0.715
1490,-0.875,-0.660
1491,-0.915,-0.600
1492,-0.920,-0.560
1493,-0.915,-0.480
1494,-0.880,-0.400
1495,-0.865,-0.300
1496,-0.850,-0.210
1497,-0.835,-0.125
1498,-0.770,-0.030
1499,-0.665,0.070
1500,-0.585,0.145
1501,-0.530,0.215
1502,-0.485,0.265
1503,-0.455,0.325
1504,-0.405,0.410
1505,-0.355,0.450
1506,-0.325,0.490
1507,-0.300,0.485
1508,-0.295,0.500
1509,-0.300,0.520
1510,-0.300,0.530
1511,-0.290,0.560
1512,-0.275,0.565
1513,-0.280,0.580
1514,-0.285,0.570
1515,-0.285,0.585
1516,-0.265,0.610
1517,-0.245,0.625
1518,-0.245,0.640
1519,-0.250,0.630
1520,-0.280,0.630
1521,-0.300,0.640
1522,-0.275,0.655
1523,-0.230,0.670
1524,-0.215,0.660
1525,-0.210,0.675
1526,-0.220,0.655
1527,-0.240,0.650
1528,-0.250,0.670
1529,-0.255,0.680
1530,-0.245,0.675
1531,-0.240,0.675
1532,-0.250,0.675
1533,-0.245,0.670
1534,-0.245,0.695
1535,-0.235,0.705
1536,-0.230,0.700
1537,-0.220,0.690
1538,-0.225,0.690
1539,-0.230,0.700
1540,-0.205,0.715
1541,-0.200,0.720
1542,-0.190,0.705
1543,-0.185,0.710
1544,-0.180,0.705
1545,-0.195,0.715
1546,-0.210,0.715
1547,-0.215,0.730
1548,-0.190,0.730
1549,-0.180,0.715
1550,-0.175,0.720
1551,-0.185,0.715
1552,-0.195,0.730
1553,-0.180,0.740
1554,-0.160,0.735
1555,-0.145,0.740
1556,-0.160,0.740
1557,-0.165,0.720
1558,-0.145,0.715
1559,-0.145,0.745
1560,-0.130,0.735
1561,-0.160,0.735
1562,-0.170,0.715
1563,-0.185,0.730
1564,-0.160,0.720
1565,-0.115,0.725
1566,-0.100,0.715
1567,-0.105,0.705
1568,-0.125,0.690
1569,-0.135,0.690
1570,-0.105,0.695
1571,-0.070,0.705
1572,-0.045,0.705
1573,-0.045,0.680
1574,-0.100,0.655
1575,-0.115,0.655
1576,-0.105,0.660
1577,-0.095,0.655
1578,-0.070,0.655
1579,-0.075,0.630
1580,-0.090,0.600
1581,-0.115,0.590
1582,-0.130,0.580
1583,-0.125,0.570
1584,-0.095,0.555
1585,-0.105,0.545
1586,-0.145,0.515
1587,-0.125,0.505
1588,-0.100,0.510
1589,-0.100,0.505
1590,-0.120,0.505
1591,-0.155,0.470
1592,-0.165,0.440
1593,-0.175,0.450
1594,-0.185,0.460
1595,-0.170,0.475
1596,-0.170,0.465
1597,-0.195,0.445
1598,-0.235,0.425
1599,-0.240,0.425
1600,-0.200,0.435
1601,-0.165,0.450
1602,-0.150,0.440
1603,-0.180,0.440
1604,-0.205,0.435
1605,-0.220,0.435
1606,-0.185,0.445
1607,-0.170,0.460
1608,-0.160,0.450
1609,-0.160,0.440
1610,-0.190,0.435
1611,-0.225,0.430
1612,-0.220,0.455
1613,-0.200,0.475
1614,-0.195,0.470
1615,-0.215,0.470
1616,-0.190,0.465
1617,-0.200,0.455
1618,-0.210,0.460
1619,-0.215,0.470
1620,-0.210,0.475
1621,-0.215,0.480
1622,-0.220,0.455
1623,-0.205,0.465
1624,-0.195,0.480
1625,-0.175,0.490
1626,-0.150,0.485
1627,-0.170,0.490
1628,-0.200,0.475
1629,-0.230,0.475
1630,-0.235,0.500
1631,-0.225,0.510
1632,-0.210,0.510
1633,-0.210,0.505
1634,-0.215,0.485
1635,-0.230,0.490
1636,-0.225,0.510
1637,-0.220,0.515
1638,-0.225,0.510
1639,-0.235,0.505
1640,-0.240,0.500
1641,-0.245,0.490
1642,-0.240,0.495
1643,-0.245,0.525
1644,-0.250,0.515
1645,-0.260,0.505
1646,-0.275,0.505
1647,-0.290,0.510
1648,-0.270,0.510
1649,-0.230,0.515
1650,-0.250,0.510
1651,-0.280,0.505
1652,-0.305,0.490
1653,-0.295,0.490
1654,-0.310,0.480
1655,-0.330,0.495
1656,-0.350,0.490
1657,-0.340,0.490
1658,-0.345,0.480
1659,-0.375,0.470
1660,-0.410,0.475
1661,-0.345,0.490
1662,-0.260,0.490
1663,-0.250,0.470
1664,-0.300,0.465
1665,-0.300,0.475
1666,-0.275,0.490
1667,-0.245,0.490
1668,-0.230,0.475
1669,-0.245,0.470
1670,-0.280,0.450
1671,-0.285,0.440
1672,-0.235,0.440
1673,-0.195,0.465
1674,-0.200,0.460
1675,-0.225,0.460
1676,-0.240,0.450
1677,-0.240,0.430
1678,-0.230,0.430
1679,-0.225,0.455
1680,-0.230,0.445
1681,-0.235,0.445
1682,-0.245,0.430
1683,-0.265,0.425
1684,-0.250,0.440
1685,-0.220,0.450
1686,-0.225,0.450
1687,-0.220,0.440
1688,-0.240,0.435
1689,-0.255,0.420
1690,-0.260,0.435
1691,-0.235,0.440
1692,-0.225,0.435
1693,-0.230,0.430
1694,-0.245,0.435
1695,-0.245,0.425
1696,-0.245,0.430
1697,-0.230,0.445
1698,-0.230,0.425
1699,-0.225,0.430
1700,-0.245,0.425
1701,-0.255,0.425
1702,-0.250,0.440
1703,-0.235,0.455
1704,-0.210,0.455
1705,-0.220,0.450
1706,-0.255,0.440
1707,-0.265,0.430
1708,-0.265,0.425
1709,-0.260,0.435
1710,-0.230,0.440
1711,-0.225,0.440
1712,-0.225,0.430
1713,-0.270,0.425
1714,-0.255,0.425
1715,-0.265,0.445
1716,-0.260,0.425
1717,-0.270,0.435
1718,-0.250,0.420
1719,-0.235,0.430
1720,-0.225,0.440
1721,-0.250,0.445
1722,-0.285,0.440
1723,-0.300,0.440
1724,-0.270,0.435
1725,-0.205,0.440
1726,-0.120,0.445
1727,-0.105,0.465
1728,-0.145,0.475
1729,-0.145,0.480
1730,-0.140,0.475
1731,-0.145,0.490
1732,-0.150,0.505
1733,-0.160,0.520
1734,-0.145,0.535
1735,-0.110,0.535
1736,-0.090,0.525
1737,-0.095,0.520
1738,-0.080,0.545
1739,-0.065,0.530
1740,-0.045,0.510
1741,-0.035,0.500
1742,-0.045,0.490
1743,-0.035,0.485
1744,-0.015,0.490
1745,-0.005,0.490
1746,0.000,0.485
1747,-0.015,0.480
1748,0.000,0.470
1749,0.005,0.455
1750,0.010,0.485
1751,0.010,0.500
1752,0.005,0.475
1753,-0.030,0.470
1754,-0.080,0.455
1755,-0.130,0.450
1756,-0.165,0.455
1757,-0.205,0.450
1758,-0.250,0.440
1759,-0.280,0.435
1760,-0.285,0.415
1761,-0.275,0.420
1762,-0.240,0.415
1763,-0.220,0.440
1764,-0.245,0.435
1765,-0.280,0.415
1766,-0.315,0.405
1767,-0.330,0.400
1768,-0.300,0.405
1769,-0.265,0.415
1770,-0.250,0.415
1771,-0.265,0.410
1772,-0.310,0.395
1773,-0.365,0.395
1774,-0.390,0.405
1775,-0.390,0.420
1776,-0.360,0.420
1777,-0.300,0.420
1778,-0.255,0.410
1779,-0.270,0.415
1780,-0.295,0.425
1781,-0.285,0.445
1782,-0.305,0.425
1783,-0.325,0.410
1784,-0.280,0.405
1785,-0.230,0.405
1786,-0.205,0.425
1787,-0.230,0.415
1788,-0.255,0.415
1789,-0.255,0.410
1790,-0.270,0.390
1791,-0.300,0.400
1792,-0.310,0.395
1793,-0.280,0.410
1794,-0.265,0.430
1795,-0.260,0.420
1796,-0.300,0.355
1797,-0.385,0.255
1798,-0.430,0.110
1799,-0.400,-0.060
1800,-0.360,-0.300
1801,-0.380,-0.555
1802,-0.400,-0.875
1803,-0.425,-1.165
1804,-0.465,-1.385
1805,-0.510,-1.460
1806,-0.560,-1.430
1807,-0.590,-1.360
1808,-0.575,-1.315
1809,-0.590,-1.265
1810,-0.610,-1.200
1811,-0.630,-1.130
1812,-0.675,-1.100
1813,-0.705,-1.075
1814,-0.730,-1.060
1815,-0.735,-0.990
1816,-0.750,-0.920
1817,-0.780,-0.820
1818,-0.840,-0.755
1819,-0.905,-0.690
1820,-0.945,-0.630
1821,-0.955,-0.565
1822,-0.900,-0.470
1823,-0.825,-0.335
1824,-0.760,-0.220
1825,-0.730,-0.095
1826,-0.700,-0.010
1827,-0.635,0.090
1828,-0.565,0.190
1829,-0.500,0.285
1830,-0.450,0.360
1831,-0.405,0.440
1832,-0.315,0.510
1833,-0.235,0.585
1834,-0.215,0.630
1835,-0.210,0.675
1836,-0.195,0.695
1837,-0.195,0.720
1838,-0.195,0.720
1839,-0.225,0.735
1840,-0.215,0.755
1841,-0.205,0.780
1842,-0.175,0.775
1843,-0.190,0.790
1844,-0.215,0.790
1845,-0.235,0.805
1846,-0.230,0.805
1847,-0.205,0.830
1848,-0.190,0.830
1849,-0.180,0.835
1850,-0.165,0.830
1851,-0.150,0.840
1852,-0.150,0.855
1853,-0.175,0.865
1854,-0.215,0.870
1855,-0.260,0.860
1856,-0.235,0.870
1857,-0.185,0.880
1858,-0.115,0.895
1859,-0.075,0.915
1860,-0.065,0.920
1861,-0.100,0.900
1862,-0.125,0.880
1863,-0.140,0.885
1864,-0.165,0.900
1865,-0.140,0.915
1866,-0.145,0.915
1867,-0.135,0.910
1868,-0.130,0.905
1869,-0.130,0.905
1870,-0.125,0.920
1871,-0.120,0.935
1872,-0.110,0.935
1873,-0.110,0.935
1874,-0.110,0.935
1875,-0.130,0.935
1876,-0.120,0.945
1877,-0.095,0.965
1878,-0.070,0.965
1879,-0.060,0.970
1880,-0.060,0.950
1881,-0.060,0.950
1882,-0.075,0.955
1883,-0.080,0.955
1884,-0.075,0.970
1885,-0.070,0.955
1886,-0.065,0.960
1887,-0.065,0.940
1888,-0.065,0.955
1889,-0.070,0.960
1890,-0.070,0.955
1891,-0.075,0.945
1892,-0.035,0.945
1893,-0.015,0.945
1894,-0.030,0.950
1895,-0.055,0.950
1896,-0.045,0.955
1897,-0.025,0.940
1898,-0.015,0.930
1899,-0.020,0.920
1900,-0.005,0.925
1901,0.005,0.915
1902,-0.010,0.900
1903,-0.010,0.885
1904,-0.010,0.875
1905,-0.010,0.855
1906,-0.015,0.845
1907,-0.010,0.850
1908,-0.010,0.835
1909,-0.040,0.815
1910,-0.065,0.775
1911,-0.080,0.760
1912,-0.090,0.760
1913,-0.090,0.760
1914,-0.055,0.750
1915,-0.035,0.715
1916,-0.040,0.700
1917,-0.075,0.680
1918,-0.100,0.675
1919,-0.090,0.675
1920,-0.075,0.655
1921,-0.070,0.655
1922,-0.085,0.640
1923,-0.115,0.640
1924,-0.130,0.635
1925,-0.125,0.630
1926,-0.125,0.610
1927,-0.135,0.605
1928,-0.160,0.590
1929,-0.170,0.595
1930,-0.160,0.605
1931,-0.160,0.600
1932,-0.165,0.600
1933,-0.155,0.615
1934,-0.170,0.595
1935,-0.180,0.585
1936,-0.180,0.595
1937,-0.175,0.615
1938,-0.180,0.620
1939,-0.185,0.615
1940,-0.195,0.605
1941,-0.205,0.610
1942,-0.210,0.605
1943,-0.215,0.615
1944,-0.205,0.620
1945,-0.200,0.610
1946,-0.210,0.610
1947,-0.210,0.605
1948,-0.215,0.625
1949,-0.225,0.640
1950,-0.225,0.635
1951,-0.255,0.640
1952,-0.250,0.630
1953,-0.255,0.645
1954,-0.245,0.655
1955,-0.250,0.670
1956,-0.250,0.660
1957,-0.240,0.670
1958,-0.215,0.660
1959,-0.210,0.660
1960,-0.220,0.660
1961,-0.230,0.675
1962,-0.225,0.685
1963,-0.225,0.685
1964,-0.245,0.665
1965,-0.270,0.675
1966,-0.260,0.690
1967,-0.255,0.690
1968,-0.245,0.690
1969,-0.245,0.685
1970,-0.265,0.670
1971,-0.285,0.675
1972,-0.285,0.690
1973,-0.290,0.710
1974,-0.285,0.715
1975,-0.300,0.700
1976,-0.310,0.705
1977,-0.315,0.680
1978,-0.315,0.695
1979,-0.305,0.705
1980,-0.305,0.710
1981,-0.315,0.700
1982,-0.340,0.695
1983,-0.350,0.675
1984,-0.350,0.690
1985,-0.330,0.710
1986,-0.325,0.710
1987,-0.325,0.705
1988,-0.335,0.690
1989,-0.370,0.695
1990,-0.370,0.700
1991,-0.370,0.700
1992,-0.345,0.700
1993,-0.345,0.695
1994,-0.350,0.685
1995,-0.365,0.670
1996,-0.375,0.690
1997,-0.365,0.690
1998,-0.355,0.680
1999,-0.360,0.670
2000,-0.360,0.670
2001,-0.355,0.675
2002,-0.345,0.685
2003,-0.365,0.685
2004,-0.405,0.670
2005,-0.410,0.675
2006,-0.365,0.660
2007,-0.330,0.655
2008,-0.320,0.670
2009,-0.330,0.675
2010,-0.360,0.680
2011,-0.370,0.680
2012,-0.370,0.660
2013,-0.370,0.655
2014,-0.370,0.660
2015,-0.370,0.670
2016,-0.365,0.680
2017,-0.375,0.675
2018,-0.370,0.675
2019,-0.380,0.650
2020,-0.360,0.665
2021,-0.345,0.655
2022,-0.340,0.665
2023,-0.330,0.650
2024,-0.335,0.645
2025,-0.360,0.640
2026,-0.370,0.650
2027,-0.350,0.655
2028,-0.340,0.655
2029,-0.350,0.655
2030,-0.370,0.640
2031,-0.390,0.630
2032,-0.385,0.630
2033,-0.360,0.645
2034,-0.350,0.635
2035,-0.350,0.635
2036,-0.350,0.625
2037,-0.360,0.620
2038,-0.355,0.615
2039,-0.340,0.630
2040,-0.355,0.615
2041,-0.360,0.615
2042,-0.375,0.600
2043,-0.360,0.610
2044,-0.355,0.600
2045,-0.365,0.610
2046,-0.375,0.600
2047,-0.380,0.590
2048,-0.370,0.580
2049,-0.355,0.575
2050,-0.350,0.580
2051,-0.350,0.595
2052,-0.360,0.600
2053,-0.365,0.580
2054,-0.375,0.580
2055,-0.375,0.585
2056,-0.355,0.590
2057,-0.350,0.610
2058,-0.345,0.590
2059,-0.345,0.580
2060,-0.365,0.570
2061,-0.370,0.565
2062,-0.340,0.560
2063,-0.305,0.580
2064,-0.300,0.585
2065,-0.320,0.585
2066,-0.340,0.575
2067,-0.330,0.585
2068,-0.290,0.605
2069,-0.260,0.615
2070,-0.260,0.610
2071,-0.275,0.615
2072,-0.285,0.615
2073,-0.290,0.630
2074,-0.295,0.640
2075,-0.270,0.650
2076,-0.240,0.665
2077,-0.175,0.665
2078,-0.150,0.645
2079,-0.155,0.625
2080,-0.155,0.600
2081,-0.140,0.610
2082,-0.120,0.590
2083,-0.125,0.575
2084,-0.135,0.560
2085,-0.125,0.565
2086,-0.125,0.570
2087,-0.115,0.575
2088,-0.100,0.575
2089,-0.105,0.565
2090,-0.135,0.560
2091,-0.175,0.545
2092,-0.200,0.555
2093,-0.210,0.570
2094,-0.235,0.560
2095,-0.280,0.545
2096,-0.340,0.530
2097,-0.390,0.520
2098,-0.410,0.515
2099,-0.405,0.520
2100,-0.385,0.505
2101,-0.380,0.505
2102,-0.385,0.490
2103,-0.395,0.475
2104,-0.380,0.495
2105,-0.370,0.495
2106,-0.365,0.505
2107,-0.385,0.505
2108,-0.395,0.475
2109,-0.400,0.475
2110,-0.370,0.495
2111,-0.370,0.500
2112,-0.370,0.490
2113,-0.370,0.485
2114,-0.375,0.480
2115,-0.385,0.460
2116,-0.400,0.475
2117,-0.390,0.480
2118,-0.360,0.485
2119,-0.365,0.470
2120,-0.380,0.460
2121,-0.395,0.460
2122,-0.405,0.480
2123,-0.390,0.465
2124,-0.365,0.465
2125,-0.355,0.460
2126,-0.360,0.435
2127,-0.380,0.450
2128,-0.390,0.465
2129,-0.365,0.475
2130,-0.345,0.480
2131,-0.355,0.450
2132,-0.390,0.390
2133,-0.445,0.290
2134,-0.445,0.190
2135,-0.415,0.060
2136,-0.385,-0.110
2137,-0.390,-0.330
2138,-0.395,-0.655
2139,-0.425,-0.980
2140,-0.465,-1.180
2141,-0.545,-1.235
2142,-0.610,-1.195
2143,-0.640,-1.145
2144,-0.640,-1.110
2145,-0.650,-1.055
2146,-0.655,-1.000
2147,-0.680,-0.940
2148,-0.720,-0.910
2149,-0.760,-0.885
2150,-0.820,-0.860
2151,-0.860,-0.830
2152,-0.840,-0.755
2153,-0.850,-0.675
2154,-0.900,-0.625
2155,-0.945,-0.560
2156,-0.985,-0.520
2157,-1.000,-0.480
2158,-0.960,-0.370
2159,-0.895,-0.250
2160,-0.855,-0.140
2161,-0.840,-0.035
2162,-0.805,0.035
2163,-0.745,0.125
2164,-0.665,0.210
2165,-0.620,0.300
2166,-0.565,0.380
2167,-0.520,0.445
2168,-0.445,0.480
2169,-0.400,0.535
2170,-0.355,0.585
2171,-0.345,0.625
2172,-0.335,0.650
2173,-0.330,0.650
2174,-0.335,0.640
2175,-0.340,0.660
2176,-0.315,0.665
2177,-0.295,0.690
2178,-0.285,0.695
2179,-0.285,0.695
2180,-0.310,0.700
2181,-0.325,0.700
2182,-0.315,0.715
2183,-0.285,0.725
2184,-0.275,0.740
2185,-0.280,0.725
2186,-0.300,0.725
2187,-0.315,0.735
2188,-0.300,0.750
2189,-0.305,0.750
2190,-0.285,0.760
2191,-0.265,0.745
2192,-0.275,0.745
2193,-0.280,0.755
2194,-0.280,0.745
2195,-0.275,0.760
2196,-0.280,0.750
2197,-0.290,0.765
2198,-0.300,0.750
2199,-0.310,0.750
2200,-0.285,0.755
2201,-0.250,0.770
2202,-0.220,0.770
2203,-0.225,0.770
2204,-0.245,0.760
2205,-0.265,0.760
2206,-0.250,0.775
2207,-0.240,0.795
2208,-0.225,0.785
2209,-0.225,0.790
2210,-0.215,0.795
2211,-0.225,0.780
2212,-0.220,0.785
2213,-0.215,0.785
2214,-0.200,0.790
2215,-0.200,0.790
2216,-0.200,0.770
2217,-0.205,0.775
2218,-0.205,0.790
2219,-0.205,0.785
2220,-0.190,0.790
2221,-0.195,0.770
2222,-0.190,0.765
2223,-0.205,0.760
2224,-0.190,0.760
2225,-0.160,0.780
2226,-0.135,0.775
2227,-0.125,0.775
2228,-0.145,0.755
2229,-0.155,0.750
2230,-0.140,0.760
2231,-0.140,0.765
2232,-0.130,0.755
2233,-0.135,0.755
2234,-0.150,0.740
2235,-0.155,0.740
2236,-0.150,0.730
2237,-0.125,0.730
2238,-0.100,0.730
2239,-0.110,0.715
2240,-0.110,0.705
2241,-0.140,0.685
2242,-0.130,0.680
2243,-0.130,0.670
2244,-0.110,0.675
2245,-0.130,0.660
2246,-0.120,0.645
2247,-0.150,0.630
2248,-0.145,0.620
2249,-0.135,0.615
2250,-0.135,0.600
2251,-0.155,0.580
2252,-0.175,0.555
2253,-0.165,0.530
2254,-0.140,0.530
2255,-0.135,0.535
2256,-0.150,0.530
2257,-0.175,0.495
2258,-0.200,0.475
2259,-0.205,0.460
2260,-0.200,0.460
2261,-0.190,0.465
2262,-0.190,0.450
2263,-0.215,0.435
2264,-0.215,0.425
2265,-0.245,0.410
2266,-0.235,0.410
2267,-0.245,0.420
2268,-0.245,0.410
2269,-0.250,0.405
2270,-0.255,0.395
2271,-0.265,0.390
2272,-0.250,0.405
2273,-0.230,0.415
2274,-0.230,0.395
2275,-0.250,0.385
2276,-0.260,0.365
2277,-0.280,0.370
2278,-0.260,0.380
2279,-0.265,0.390
2280,-0.265,0.390
2281,-0.295,0.395
2282,-0.315,0.385
2283,-0.300,0.375
2284,-0.255,0.385
2285,-0.225,0.405
2286,-0.230,0.400
2287,-0.260,0.400
2288,-0.285,0.400
2289,-0.310,0.400
2290,-0.305,0.400
2291,-0.280,0.420
2292,-0.260,0.415
2293,-0.245,0.405
2294,-0.250,0.410
2295,-0.280,0.400
2296,-0.280,0.410
2297,-0.285,0.420
2298,-0.275,0.425
2299,-0.280,0.420
2300,-0.280,0.405
2301,-0.295,0.410
2302,-0.305,0.430
2303,-0.285,0.445
2304,-0.275,0.450
2305,-0.275,0.445
2306,-0.295,0.420
2307,-0.315,0.430
2308,-0.310,0.445
2309,-0.290,0.450
2310,-0.275,0.445
2311,-0.295,0.450
2312,-0.310,0.445
2313,-0.325,0.435
2314,-0.305,0.460
2315,-0.300,0.450
2316,-0.280,0.450
2317,-0.310,0.440
2318,-0.320,0.425
2319,-0.330,0.435
2320,-0.305,0.440
2321,-0.310,0.455
2322,-0.305,0.455
2323,-0.315,0.430
2324,-0.345,0.425
2325,-0.345,0.425
2326,-0.340,0.420
2327,-0.330,0.440
2328,-0.320,0.430
2329,-0.330,0.430
2330,-0.345,0.425
2331,-0.350,0.430
2332,-0.350,0.430
2333,-0.345,0.430
2334,-0.345,0.415
2335,-0.345,0.415
2336,-0.370,0.405
2337,-0.385,0.390
2338,-0.375,0.395
2339,-0.350,0.400
2340,-0.335,0.400
2341,-0.325,0.400
2342,-0.345,0.380
2343,-0.365,0.385
2344,-0.380,0.390
2345,-0.385,0.395
2346,-0.375,0.390
2347,-0.370,0.375
2348,-0.365,0.365
2349,-0.355,0.360
2350,-0.350,0.380
2351,-0.345,0.395
2352,-0.330,0.390
2353,-0.345,0.385
2354,-0.360,0.380
2355,-0.365,0.365
2356,-0.350,0.370
2357,-0.350,0.390
2358,-0.350,0.390
2359,-0.365,0.380
2360,-0.375,0.350
2361,-0.385,0.340
2362,-0.375,0.355
2363,-0.350,0.365
2364,-0.325,0.365
2365,-0.320,0.360
2366,-0.325,0.355
2367,-0.340,0.355
2368,-0.340,0.360
2369,-0.335,0.355
2370,-0.330,0.365
2371,-0.330,0.365
2372,-0.315,0.355
2373,-0.330,0.365
2374,-0.330,0.370
2375,-0.325,0.375
2376,-0.320,0.370
2377,-0.320,0.360
2378,-0.330,0.340
2379,-0.335,0.345
2380,-0.320,0.350
2381,-0.325,0.360
2382,-0.300,0.355
2383,-0.310,0.360
2384,-0.315,0.345
2385,-0.325,0.340
2386,-0.320,0.355
2387,-0.310,0.355
2388,-0.305,0.345
2389,-0.300,0.335
2390,-0.310,0.335
2391,-0.315,0.340
2392,-0.305,0.350
2393,-0.300,0.365
2394,-0.290,0.355
2395,-0.280,0.355
2396,-0.300,0.330
2397,-0.315,0.350
2398,-0.315,0.350
2399,-0.305,0.345
2400,-0.290,0.340
2401,-0.305,0.335
2402,-0.305,0.320
2403,-0.315,0.330
2404,-0.315,0.340
2405,-0.310,0.345
2406,-0.290,0.335
2407,-0.295,0.330
2408,-0.310,0.320
2409,-0.315,0.315
2410,-0.305,0.330
2411,-0.295,0.335
2412,-0.300,0.335
2413,-0.305,0.330
2414,-0.290,0.325
2415,-0.315,0.320
2416,-0.320,0.340
2417,-0.300,0.345
2418,-0.245,0.365
2419,-0.220,0.355
2420,-0.210,0.355
2421,-0.220,0.360
2422,-0.220,0.380
2423,-0.210,0.410
2424,-0.190,0.410
2425,-0.200,0.400
2426,-0.170,0.400
2427,-0.165,0.400
2428,-0.130,0.405
2429,-0.120,0.390
2430,-0.110,0.375
2431,-0.085,0.355
2432,-0.095,0.350
2433,-0.095,0.340
2434,-0.100,0.345
2435,-0.095,0.335
2436,-0.085,0.345
2437,-0.075,0.330
2438,-0.070,0.325
2439,-0.060,0.330
2440,-0.060,0.330
2441,-0.045,0.330
2442,-0.070,0.330
2443,-0.105,0.300
2444,-0.160,0.290
2445,-0.200,0.300
2446,-0.215,0.305
2447,-0.250,0.310
2448,-0.280,0.295
2449,-0.320,0.295
2450,-0.335,0.270
2451,-0.350,0.260
2452,-0.345,0.260
2453,-0.330,0.265
2454,-0.340,0.270
2455,-0.340,0.265
2456,-0.360,0.260
2457,-0.360,0.255
2458,-0.380,0.260
2459,-0.360,0.250
2460,-0.320,0.265
2461,-0.300,0.240
2462,-0.315,0.250
2463,-0.330,0.240
2464,-0.345,0.250
2465,-0.350,0.275
2466,-0.330,0.245
2467,-0.340,0.245
2468,-0.360,0.230
2469,-0.350,0.240
2470,-0.350,0.245
2471,-0.345,0.250
2472,-0.345,0.250
2473,-0.350,0.245
2474,-0.360,0.230
2475,-0.365,0.220
2476,-0.355,0.235
2477,-0.340,0.235
2478,-0.335,0.225
2479,-0.340,0.225
2480,-0.340,0.210
2481,-0.335,0.220
2482,-0.350,0.220
2483,-0.350,0.215
2484,-0.355,0.215
2485,-0.350,0.220
2486,-0.350,0.230
2487,-0.375,0.225
2488,-0.390,0.215
2489,-0.375,0.165
2490,-0.380,0.095
2491,-0.400,-0.010
2492,-0.420,-0.155
2493,-0.425,-0.310
2494,-0.415,-0.490
2495,-0.415,-0.695
2496,-0.390,-0.995
2497,-0.385,-1.260
2498,-0.435,-1.475
2499,-0.530,-1.550
2500,-0.585,-1.505
2501,-0.610,-1.445
2502,-0.585,-1.390
2503,-0.575,-1.350
2504,-0.605,-1.305
2505,-0.635,-1.260
2506,-0.665,-1.200
2507,-0.700,-1.160
2508,-0.725,-1.145
2509,-0.760,-1.130
2510,-0.790,-1.090
2511,-0.795,-1.055
2512,-0.800,-0.995
2513,-0.850,-0.915
2514,-0.910,-0.875
2515,-0.955,-0.815
2516,-0.965,-0.780
2517,-0.975,-0.720
2518,-0.950,-0.635
2519,-0.910,-0.535
2520,-0.870,-0.425
2521,-0.840,-0.330
2522,-0.810,-0.250
2523,-0.775,-0.165
2524,-0.695,-0.075
2525,-0.615,0.020
2526,-0.555,0.085
2527,-0.510,0.135
2528,-0.485,0.190
2529,-0.440,0.275
2530,-0.360,0.345
2531,-0.335,0.400
2532,-0.315,0.425
2533,-0.295,0.445
2534,-0.285,0.445
2535,-0.285,0.445
2536,-0.285,0.460
2537,-0.275,0.485
2538,-0.265,0.495
2539,-0.245,0.510
2540,-0.255,0.500
2541,-0.260,0.500
2542,-0.260,0.510
2543,-0.240,0.530
2544,-0.225,0.545
2545,-0.245,0.560
2546,-0.250,0.535
2547,-0.270,0.525
2548,-0.270,0.530
2549,-0.250,0.545
2550,-0.240,0.555
2551,-0.220,0.550
2552,-0.245,0.540
2553,-0.250,0.535
2554,-0.240,0.540
2555,-0.230,0.550
2556,-0.220,0.575
2557,-0.220,0.570
2558,-0.220,0.555
2559,-0.235,0.545
2560,-0.215,0.560
2561,-0.215,0.580
2562,-0.215,0.585
2563,-0.200,0.575
2564,-0.215,0.560
2565,-0.220,0.565
2566,-0.215,0.565
2567,-0.225,0.565
2568,-0.215,0.550
2569,-0.215,0.550
2570,-0.220,0.555
2571,-0.230,0.565
2572,-0.210,0.570
2573,-0.195,0.570
2574,-0.200,0.565
2575,-0.200,0.560
2576,-0.185,0.545
2577,-0.180,0.545
2578,-0.170,0.565
2579,-0.180,0.570
2580,-0.190,0.575
2581,-0.185,0.570
2582,-0.175,0.565
2583,-0.195,0.560
2584,-0.170,0.575
2585,-0.165,0.595
2586,-0.140,0.580
2587,-0.130,0.570
2588,-0.130,0.550
2589,-0.130,0.545
2590,-0.135,0.535
2591,-0.130,0.530
2592,-0.135,0.525
2593,-0.125,0.530
2594,-0.120,0.535
2595,-0.115,0.555
2596,-0.115,0.525
2597,-0.130,0.505
2598,-0.115,0.485
2599,-0.115,0.480
2600,-0.110,0.480
2601,-0.115,0.485
2602,-0.085,0.500
2603,-0.070,0.500
2604,-0.080,0.485
2605,-0.080,0.485
2606,-0.105,0.465
2607,-0.115,0.470
2608,-0.115,0.460
2609,-0.115,0.445
2610,-0.120,0.420
2611,-0.120,0.405
2612,-0.120,0.400
2613,-0.125,0.385
2614,-0.130,0.380
2615,-0.130,0.375
2616,-0.135,0.370
2617,-0.140,0.345
2618,-0.155,0.330
2619,-0.155,0.300
2620,-0.145,0.290
2621,-0.145,0.295
2622,-0.155,0.290
2623,-0.190,0.270
2624,-0.205,0.245
2625,-0.220,0.235
2626,-0.210,0.240
2627,-0.215,0.245
2628,-0.230,0.215
2629,-0.240,0.190
2630,-0.245,0.170
2631,-0.240,0.165
2632,-0.250,0.180
2633,-0.255,0.185
2634,-0.230,0.170
2635,-0.235,0.170
2636,-0.250,0.150
2637,-0.280,0.145
2638,-0.270,0.145
2639,-0.265,0.145
2640,-0.265,0.155
2641,-0.285,0.135
2642,-0.275,0.115
2643,-0.280,0.125
2644,-0.255,0.145
2645,-0.260,0.160
2646,-0.270,0.145
2647,-0.275,0.140
2648,-0.290,0.140
2649,-0.290,0.140
2650,-0.305,0.145
2651,-0.315,0.135
2652,-0.305,0.140
2653,-0.300,0.130
2654,-0.300,0.125
2655,-0.300,0.130
2656,-0.300,0.120
2657,-0.280,0.140
2658,-0.280,0.150
2659,-0.280,0.150
2660,-0.300,0.150
2661,-0.310,0.145
2662,-0.305,0.155
2663,-0.300,0.170
2664,-0.290,0.150
2665,-0.310,0.130
2666,-0.345,0.135
2667,-0.355,0.145
2668,-0.335,0.160
2669,-0.315,0.170
2670,-0.320,0.160
2671,-0.325,0.145
2672,-0.340,0.140
2673,-0.345,0.150
2674,-0.365,0.175
2675,-0.355,0.175
2676,-0.320,0.175
2677,-0.320,0.150
2678,-0.340,0.135
2679,-0.355,0.130
2680,-0.350,0.155
2681,-0.330,0.165
2682,-0.310,0.180
2683,-0.315,0.175
2684,-0.335,0.160
2685,-0.365,0.155
2686,-0.370,0.150
2687,-0.355,0.160
2688,-0.345,0.155
2689,-0.345,0.155
2690,-0.380,0.140
2691,-0.405,0.145
2692,-0.395,0.150
2693,-0.390,0.150
2694,-0.380,0.130
2695,-0.385,0.130
2696,-0.390,0.120
2697,-0.410,0.130
2698,-0.400,0.140
2699,-0.400,0.150
2700,-0.410,0.140
2701,-0.405,0.130
2702,-0.395,0.110
2703,-0.400,0.120
2704,-0.385,0.135
2705,-0.390,0.130
2706,-0.390,0.120
2707,-0.395,0.105
2708,-0.410,0.095
2709,-0.410,0.105
2710,-0.405,0.130
2711,-0.380,0.140
2712,-0.385,0.135
2713,-0.405,0.115
2714,-0.410,0.080
2715,-0.415,0.075
2716,-0.400,0.095
2717,-0.395,0.095
2718,-0.400,0.095
2719,-0.395,0.095
2720,-0.395,0.085
2721,-0.410,0.080
2722,-0.410,0.065
2723,-0.400,0.080
2724,-0.385,0.080
2725,-0.375,0.085
2726,-0.375,0.065
2727,-0.390,0.075
2728,-0.400,0.075
2729,-0.385,0.090
2730,-0.380,0.085
2731,-0.375,0.085
2732,-0.390,0.070
2733,-0.400,0.070
2734,-0.375,0.080
2735,-0.370,0.085
2736,-0.380,0.075
2737,-0.400,0.065
2738,-0.400,0.055
2739,-0.375,0.060
2740,-0.345,0.070
2741,-0.330,0.075
2742,-0.330,0.080
2743,-0.360,0.060
2744,-0.390,0.050
2745,-0.405,0.055
2746,-0.375,0.065
2747,-0.350,0.075
2748,-0.345,0.085
2749,-0.360,0.065
2750,-0.355,0.060
2751,-0.365,0.075
2752,-0.350,0.075
2753,-0.335,0.090
2754,-0.350,0.075
2755,-0.360,0.060
2756,-0.360,0.045
2757,-0.370,0.050
2758,-0.355,0.065
2759,-0.340,0.075
2760,-0.345,0.070
2761,-0.340,0.055
2762,-0.350,0.045
2763,-0.365,0.045
2764,-0.380,0.065
2765,-0.370,0.070
2766,-0.350,0.065
2767,-0.325,0.040
2768,-0.330,0.050
2769,-0.350,0.055
2770,-0.360,0.070
2771,-0.350,0.070
2772,-0.350,0.065
2773,-0.325,0.050
2774,-0.310,0.055
2775,-0.335,0.070
2776,-0.345,0.065
2777,-0.350,0.040
2778,-0.345,0.050
2779,-0.355,0.040
2780,-0.350,0.040
2781,-0.360,0.035
2782,-0.355,0.055
2783,-0.345,0.055
2784,-0.340,0.060
2785,-0.335,0.055
2786,-0.345,0.065
2787,-0.365,0.070
2788,-0.390,0.060
2789,-0.380,0.060
2790,-0.340,0.080
2791,-0.280,0.070
2792,-0.260,0.060
2793,-0.280,0.065
2794,-0.280,0.075
2795,-0.275,0.085
2796,-0.260,0.105
2797,-0.260,0.100
2798,-0.270,0.105
2799,-0.285,0.120
2800,-0.245,0.135
2801,-0.230,0.155
2802,-0.205,0.145
2803,-0.195,0.135
2804,-0.185,0.120
2805,-0.180,0.110
2806,-0.140,0.125
2807,-0.130,0.135
2808,-0.105,0.110
2809,-0.130,0.080
2810,-0.150,0.055
2811,-0.145,0.045
2812,-0.120,0.065
2813,-0.105,0.085
2814,-0.070,0.075
2815,-0.080,0.070
2816,-0.085,0.065
2817,-0.135,0.060
2818,-0.210,0.060
2819,-0.250,0.050
2820,-0.260,0.050
2821,-0.285,0.040
2822,-0.315,0.030
2823,-0.360,0.010
2824,-0.375,0.010
2825,-0.385,0.025
2826,-0.365,0.025
2827,-0.370,0.010
2828,-0.370,0.000
2829,-0.395,0.000
2830,-0.385,0.015
2831,-0.370,0.025
2832,-0.375,0.030
2833,-0.390,0.010
2834,-0.395,-0.020
2835,-0.400,-0.010
2836,-0.390,-0.015
2837,-0.385,0.005
2838,-0.385,-0.005
2839,-0.380,-0.005
2840,-0.400,-0.020
2841,-0.400,-0.015
2842,-0.385,0.000
2843,-0.375,0.000
2844,-0.360,0.000
2845,-0.375,0.005
2846,-0.390,-0.005
2847,-0.390,0.000
2848,-0.405,0.005
2849,-0.400,0.000
2850,-0.390,0.005
2851,-0.365,-0.005
2852,-0.385,-0.010
2853,-0.395,-0.015
2854,-0.400,-0.005
2855,-0.395,0.005
2856,-0.390,0.000
2857,-0.385,-0.020
2858,-0.385,-0.030
2859,-0.400,-0.020
2860,-0.385,0.000
2861,-0.375,0.010
2862,-0.385,-0.010
2863,-0.405,-0.075
2864,-0.450,-0.165
2865,-0.440,-0.255
2866,-0.415,-0.360
2867,-0.395,-0.480
2868,-0.375,-0.665
2869,-0.380,-0.910
2870,-0.395,-1.200
2871,-0.465,-1.460
2872,-0.540,-1.580
2873,-0.600,-1.575
2874,-0.620,-1.520
2875,-0.640,-1.490
2876,-0.655,-1.455
2877,-0.650,-1.425
2878,-0.650,-1.350
2879,-0.680,-1.285
2880,-0.735,-1.260
2881,-0.780,-1.250
2882,-0.820,-1.250
2883,-0.855,-1.215
2884,-0.855,-1.140
2885,-0.890,-1.065
2886,-0.935,-1.015
2887,-0.985,-0.985
2888,-1.015,-0.945
2889,-1.020,-0.890
2890,-1.015,-0.830
2891,-0.985,-0.745
2892,-0.930,-0.645
2893,-0.885,-0.540
2894,-0.880,-0.470
2895,-0.835,-0.390
2896,-0.740,-0.300
2897,-0.655,-0.200
2898,-0.585,-0.140
2899,-0.545,-0.070
2900,-0.525,-0.025
2901,-0.505,0.030
2902,-0.450,0.100
2903,-0.390,0.150
2904,-0.335,0.185
2905,-0.315,0.200
2906,-0.310,0.215
2907,-0.320,0.215
2908,-0.310,0.250
2909,-0.300,0.265
2910,-0.285,0.275
2911,-0.285,0.275
2912,-0.285,0.290
2913,-0.305,0.295
2914,-0.290,0.310
2915,-0.280,0.305
2916,-0.280,0.300
2917,-0.275,0.310
2918,-0.280,0.300
2919,-0.300,0.310
2920,-0.290,0.330
2921,-0.275,0.350
2922,-0.260,0.350
2923,-0.265,0.340
2924,-0.270,0.320
2925,-0.280,0.325
2926,-0.285,0.350
2927,-0.285,0.355
2928,-0.275,0.360
2929,-0.250,0.345
2930,-0.250,0.360
2931,-0.260,0.350
2932,-0.280,0.365
2933,-0.265,0.375
2934,-0.250,0.370
2935,-0.260,0.380
2936,-0.255,0.360
2937,-0.255,0.355
2938,-0.260,0.365
2939,-0.245,0.375
2940,-0.245,0.375
2941,-0.240,0.370
2942,-0.230,0.370
2943,-0.235,0.370
2944,-0.225,0.370
2945,-0.225,0.380
2946,-0.200,0.375
2947,-0.210,0.380
2948,-0.225,0.365
2949,-0.235,0.380
2950,-0.230,0.405
2951,-0.225,0.410
2952,-0.200,0.405
2953,-0.180,0.395
2954,-0.185,0.380
2955,-0.185,0.390
2956,-0.190,0.390
2957,-0.200,0.400
2958,-0.185,0.390
2959,-0.170,0.375
2960,-0.160,0.380
2961,-0.170,0.370
2962,-0.170,0.390
2963,-0.155,0.395
2964,-0.155,0.375
2965,-0.150,0.365
2966,-0.150,0.360
2967,-0.165,0.365
2968,-0.160,0.385
2969,-0.150,0.380
2970,-0.150,0.370
2971,-0.150,0.355
2972,-0.150,0.340
2973,-0.145,0.335
2974,-0.135,0.360
2975,-0.145,0.355
2976,-0.150,0.335
2977,-0.145,0.320
2978,-0.150,0.310
2979,-0.165,0.285
2980,-0.150,0.290
2981,-0.130,0.285
2982,-0.120,0.275
2983,-0.130,0.270
2984,-0.135,0.255
2985,-0.145,0.245
2986,-0.145,0.240
2987,-0.150,0.240
2988,-0.155,0.230
2989,-0.165,0.220
2990,-0.175,0.200
2991,-0.200,0.175
2992,-0.215,0.160
2993,-0.220,0.175
2994,-0.205,0.160
2995,-0.210,0.155
2996,-0.220,0.130
2997,-0.230,0.115
2998,-0.235,0.105
2999,-0.245,0.100
3000,-0.235,0.100
3001,-0.250,0.095
3002,-0.270,0.075
3003,-0.270,0.070
3004,-0.280,0.090
3005,-0.265,0.090
3006,-0.255,0.075
3007,-0.255,0.060
3008,-0.285,0.040
3009,-0.290,0.060
3010,-0.280,0.070
3011,-0.275,0.070
3012,-0.270,0.060
3013,-0.275,0.070
3014,-0.265,0.060
3015,-0.275,0.065
3016,-0.285,0.075
3017,-0.275,0.075
3018,-0.265,0.070
3019,-0.280,0.075
3020,-0.290,0.065
3021,-0.295,0.060
3022,-0.285,0.075
3023,-0.265,0.080
3024,-0.270,0.080
3025,-0.280,0.070
3026,-0.295,0.070
3027,-0.305,0.075
3028,-0.300,0.080
3029,-0.280,0.115
3030,-0.285,0.125
3031,-0.285,0.115
3032,-0.305,0.095
3033,-0.315,0.095
3034,-0.315,0.105
3035,-0.295,0.125
3036,-0.295,0.120
3037,-0.295,0.115
3038,-0.300,0.100
3039,-0.310,0.110
3040,-0.320,0.130
3041,-0.305,0.130
3042,-0.300,0.145
3043,-0.305,0.135
3044,-0.305,0.115
3045,-0.330,0.105
3046,-0.335,0.115
3047,-0.335,0.130
3048,-0.315,0.145
3049,-0.315,0.140
3050,-0.330,0.130
3051,-0.355,0.135
3052,-0.335,0.140
3053,-0.325,0.145
3054,-0.325,0.135
3055,-0.325,0.125
3056,-0.330,0.135
3057,-0.355,0.120
3058,-0.360,0.130
3059,-0.350,0.125
3060,-0.350,0.145
3061,-0.345,0.130
3062,-0.355,0.115
3063,-0.380,0.110
3064,-0.375,0.115
3065,-0.370,0.120
3066,-0.365,0.105
3067,-0.370,0.105
3068,-0.385,0.100
3069,-0.405,0.100
3070,-0.400,0.110
3071,-0.395,0.115
3072,-0.370,0.110
3073,-0.370,0.110
3074,-0.390,0.100
3075,-0.410,0.090
3076,-0.400,0.110
3077,-0.405,0.110
3078,-0.385,0.100
3079,-0.365,0.100
3080,-0.375,0.080
3081,-0.395,0.065
3082,-0.405,0.085
3083,-0.400,0.100
3084,-0.380,0.110
3085,-0.365,0.105
3086,-0.365,0.100
3087,-0.385,0.090
3088,-0.395,0.075
3089,-0.400,0.085
3090,-0.385,0.090
3091,-0.375,0.090
3092,-0.390,0.080
3093,-0.380,0.070
3094,-0.355,0.085
3095,-0.340,0.090
3096,-0.360,0.080
3097,-0.380,0.065
3098,-0.390,0.050
3099,-0.380,0.060
3100,-0.365,0.075
3101,-0.365,0.085
3102,-0.355,0.075
3103,-0.355,0.065
3104,-0.370,0.050
3105,-0.375,0.045
3106,-0.385,0.055
3107,-0.375,0.080
3108,-0.375,0.070
3109,-0.375,0.065
3110,-0.345,0.070
3111,-0.345,0.065
3112,-0.350,0.070
3113,-0.350,0.075
3114,-0.350,0.055
3115,-0.355,0.045
3116,-0.345,0.050
3117,-0.355,0.055
3118,-0.350,0.050
3119,-0.355,0.060
3120,-0.355,0.045
3121,-0.370,0.055
3122,-0.360,0.050
3123,-0.365,0.045
3124,-0.360,0.040
3125,-0.350,0.070
3126,-0.345,0.060
3127,-0.360,0.065
3128,-0.355,0.050
3129,-0.375,0.045
3130,-0.360,0.075
3131,-0.355,0.090
3132,-0.360,0.065
3133,-0.365,0.040
3134,-0.360,0.035
3135,-0.365,0.045
3136,-0.360,0.050
3137,-0.350,0.060
3138,-0.340,0.050
3139,-0.335,0.055
3140,-0.335,0.050
3141,-0.350,0.040
3142,-0.330,0.055
3143,-0.310,0.080
3144,-0.320,0.095
3145,-0.310,0.095
3146,-0.305,0.095
3147,-0.320,0.095
3148,-0.310,0.115
3149,-0.285,0.145
3150,-0.275,0.145
3151,-0.265,0.155
3152,-0.220,0.150
3153,-0.190,0.135
3154,-0.170,0.125
3155,-0.185,0.105
3156,-0.175,0.100
3157,-0.155,0.095
3158,-0.150,0.085
3159,-0.155,0.075
3160,-0.155,0.070
3161,-0.145,0.080
3162,-0.120,0.070
3163,-0.100,0.080
3164,-0.110,0.075
3165,-0.140,0.080
3166,-0.150,0.090
3167,-0.185,0.080
3168,-0.210,0.075
3169,-0.245,0.065
3170,-0.285,0.050
3171,-0.325,0.045
3172,-0.370,0.050
3173,-0.395,0.030
3174,-0.400,0.015
3175,-0.420,0.015
3176,-0.410,-0.015
3177,-0.415,0.000
3178,-0.425,0.015
3179,-0.405,0.025
3180,-0.405,0.020
3181,-0.405,0.015
3182,-0.415,0.015
3183,-0.425,0.005
3184,-0.440,0.010
3185,-0.440,0.015
3186,-0.410,0.005
3187,-0.395,0.015
3188,-0.405,-0.010
3189,-0.430,-0.015
3190,-0.430,0.000
3191,-0.425,0.010
3192,-0.405,0.000
3193,-0.420,-0.005
3194,-0.410,-0.010
3195,-0.405,-0.005
3196,-0.400,0.015
3197,-0.400,0.010
3198,-0.400,-0.010
3199,-0.420,-0.030
3200,-0.430,-0.030
3201,-0.440,-0.030
3202,-0.430,-0.020
3203,-0.420,-0.010
3204,-0.425,-0.005
3205,-0.410,0.005
3206,-0.400,-0.005
3207,-0.420,-0.010
3208,-0.415,-0.025
3209,-0.415,0.000
3210,-0.410,-0.005
3211,-0.425,-0.060
3212,-0.445,-0.110
3213,-0.475,-0.185
3214,-0.460,-0.275
3215,-0.420,-0.380
3216,-0.380,-0.505
3217,-0.390,-0.675
3218,-0.410,-0.920
3219,-0.405,-1.215
3220,-0.435,-1.460
3221,-0.505,-1.575
3222,-0.605,-1.600
3223,-0.650,-1.560
3224,-0.665,-1.510
3225,-0.665,-1.470
3226,-0.680,-1.415
3227,-0.690,-1.350
3228,-0.695,-1.300
3229,-0.740,-1.275
3230,-0.795,-1.250
3231,-0.845,-1.235
3232,-0.885,-1.185
3233,-0.900,-1.120
3234,-0.915,-1.065
3235,-0.965,-1.005
3236,-1.020,-0.960
3237,-1.070,-0.915
3238,-1.065,-0.855
3239,-1.045,-0.790
3240,-1.005,-0.705
3241,-0.955,-0.610
3242,-0.925,-0.525
3243,-0.915,-0.445
3244,-0.875,-0.365
3245,-0.790,-0.270
3246,-0.695,-0.190
3247,-0.630,-0.125
3248,-0.600,-0.080
3249,-0.575,-0.020
3250,-0.515,0.055
3251,-0.440,0.130
3252,-0.395,0.175
3253,-0.380,0.185
3254,-0.385,0.195
3255,-0.385,0.205
3256,-0.375,0.230
3257,-0.360,0.245
3258,-0.340,0.255
3259,-0.330,0.275
3260,-0.340,0.255
3261,-0.350,0.250
3262,-0.350,0.265
3263,-0.330,0.300
3264,-0.325,0.300
3265,-0.330,0.300
3266,-0.335,0.285
3267,-0.335,0.290
3268,-0.325,0.315
3269,-0.305,0.330
3270,-0.295,0.325
3271,-0.295,0.315
3272,-0.305,0.320
3273,-0.320,0.325
3274,-0.320,0.340
3275,-0.330,0.325
3276,-0.310,0.305
3277,-0.305,0.320
3278,-0.295,0.320
3279,-0.310,0.335
3280,-0.300,0.340
3281,-0.300,0.355
3282,-0.290,0.350
3283,-0.280,0.345
3284,-0.285,0.345
3285,-0.290,0.350
3286,-0.280,0.355
3287,-0.265,0.345
3288,-0.250,0.360
3289,-0.260,0.360
3290,-0.270,0.360
3291,-0.280,0.350
3292,-0.260,0.355
3293,-0.255,0.375
3294,-0.270,0.355
3295,-0.265,0.345
3296,-0.255,0.345
3297,-0.245,0.350
3298,-0.235,0.360
3299,-0.240,0.360
3300,-0.230,0.355
3301,-0.210,0.360
3302,-0.210,0.365
3303,-0.220,0.360
3304,-0.225,0.375
3305,-0.215,0.380
3306,-0.205,0.360
3307,-0.205,0.355
3308,-0.205,0.355
3309,-0.210,0.360
3310,-0.200,0.365
3311,-0.210,0.355
3312,-0.190,0.340
3313,-0.190,0.335
3314,-0.190,0.330
3315,-0.200,0.330
3316,-0.210,0.320
3317,-0.215,0.325
3318,-0.175,0.325
3319,-0.155,0.315
3320,-0.165,0.305
3321,-0.185,0.285
3322,-0.180,0.300
3323,-0.165,0.315
3324,-0.150,0.300
3325,-0.150,0.290
3326,-0.165,0.270
3327,-0.180,0.255
3328,-0.190,0.250
3329,-0.180,0.255
3330,-0.185,0.245
3331,-0.210,0.210
3332,-0.220,0.190
3333,-0.235,0.175
3334,-0.235,0.185
3335,-0.230,0.185
3336,-0.225,0.165
3337,-0.240,0.155
3338,-0.255,0.130
3339,-0.265,0.120
3340,-0.275,0.120
3341,-0.265,0.115
3342,-0.270,0.100
3343,-0.285,0.100
3344,-0.295,0.085
3345,-0.310,0.085
3346,-0.305,0.085
3347,-0.300,0.090
3348,-0.305,0.085
3349,-0.305,0.070
3350,-0.325,0.060
3351,-0.365,0.040
3352,-0.345,0.045
3353,-0.330,0.065
3354,-0.315,0.070
3355,-0.335,0.065
3356,-0.320,0.040
3357,-0.350,0.045
3358,-0.335,0.065
3359,-0.340,0.075
3360,-0.330,0.070
3361,-0.340,0.060
3362,-0.350,0.045
3363,-0.355,0.050
3364,-0.375,0.065
3365,-0.360,0.070
3366,-0.335,0.080
3367,-0.335,0.065
3368,-0.340,0.045
3369,-0.360,0.045
3370,-0.355,0.065
3371,-0.360,0.085
3372,-0.345,0.085
3373,-0.350,0.085
3374,-0.350,0.070
3375,-0.365,0.080
3376,-0.355,0.085
3377,-0.360,0.095
3378,-0.345,0.085
3379,-0.355,0.090
3380,-0.355,0.090
3381,-0.365,0.090
3382,-0.375,0.100
3383,-0.365,0.100
3384,-0.350,0.100
3385,-0.360,0.100
3386,-0.345,0.095
3387,-0.370,0.100
3388,-0.365,0.115
3389,-0.350,0.130
3390,-0.340,0.120
3391,-0.350,0.125
3392,-0.370,0.115
3393,-0.385,0.125
3394,-0.390,0.120
3395,-0.375,0.125
3396,-0.365,0.125
3397,-0.375,0.105
3398,-0.395,0.085
3399,-0.405,0.090
3400,-0.410,0.110
3401,-0.405,0.125
3402,-0.400,0.120
3403,-0.400,0.115
3404,-0.405,0.105
3405,-0.425,0.095
3406,-0.410,0.115
3407,-0.405,0.120
3408,-0.385,0.115
3409,-0.395,0.115
3410,-0.405,0.105
3411,-0.410,0.100
3412,-0.420,0.100
3413,-0.410,0.110
3414,-0.410,0.105
3415,-0.405,0.085
3416,-0.400,0.080
3417,-0.410,0.080
3418,-0.420,0.085
3419,-0.415,0.105
3420,-0.415,0.080
3421,-0.430,0.070
3422,-0.425,0.070
3423,-0.430,0.070
3424,-0.435,0.070
3425,-0.425,0.095
3426,-0.415,0.075
3427,-0.410,0.085
3428,-0.395,0.085
3429,-0.410,0.070
3430,-0.430,0.060
3431,-0.450,0.050
3432,-0.420,0.055
3433,-0.425,0.055
3434,-0.420,0.045
3435,-0.435,0.040
3436,-0.420,0.050
3437,-0.425,0.055
3438,-0.420,0.055
3439,-0.430,0.050
3440,-0.425,0.050
3441,-0.425,0.050
3442,-0.400,0.075
3443,-0.395,0.075
3444,-0.405,0.065
3445,-0.410,0.035
3446,-0.400,0.050
3447,-0.395,0.055
3448,-0.380,0.060
3449,-0.370,0.075
3450,-0.375,0.070
3451,-0.385,0.070
3452,-0.405,0.060
3453,-0.410,0.045
3454,-0.410,0.055
3455,-0.405,0.060
3456,-0.390,0.035
3457,-0.395,0.035
3458,-0.410,0.040
3459,-0.420,0.035
3460,-0.390,0.050
3461,-0.385,0.050
3462,-0.380,0.045
3463,-0.375,0.045
3464,-0.380,0.035
3465,-0.395,0.035
3466,-0.390,0.060
3467,-0.385,0.075
3468,-0.390,0.070
3469,-0.400,0.055
3470,-0.415,0.035
3471,-0.400,0.030
3472,-0.410,0.040
3473,-0.395,0.045
3474,-0.400,0.040
3475,-0.395,0.040
3476,-0.405,0.030
3477,-0.395,0.030
3478,-0.370,0.040
3479,-0.365,0.055
3480,-0.360,0.050
3481,-0.370,0.040
3482,-0.385,0.025
3483,-0.395,0.025
3484,-0.390,0.040
3485,-0.375,0.060
3486,-0.365,0.055
3487,-0.375,0.040
3488,-0.395,0.025
3489,-0.390,0.020
3490,-0.385,0.040
3491,-0.375,0.045
3492,-0.365,0.050
3493,-0.360,0.035
3494,-0.370,0.040
3495,-0.380,0.055
3496,-0.360,0.060
3497,-0.320,0.080
3498,-0.290,0.095
3499,-0.285,0.085
3500,-0.310,0.095
3501,-0.310,0.105
3502,-0.285,0.125
3503,-0.260,0.145
3504,-0.240,0.155
3505,-0.220,0.150
3506,-0.210,0.125
3507,-0.205,0.115
3508,-0.210,0.100
3509,-0.185,0.105
3510,-0.150,0.095
3511,-0.135,0.090
3512,-0.140,0.075
3513,-0.160,0.065
3514,-0.170,0.065
3515,-0.145,0.065
3516,-0.130,0.070
3517,-0.125,0.060
3518,-0.120,0.065
3519,-0.130,0.060
3520,-0.140,0.065
3521,-0.180,0.070
3522,-0.230,0.060
3523,-0.270,0.055
3524,-0.310,0.040
3525,-0.355,0.050
3526,-0.410,0.035
3527,-0.425,0.040
3528,-0.420,0.015
3529,-0.410,0.025
3530,-0.410,0.005
3531,-0.410,0.005
3532,-0.405,0.030
3533,-0.395,0.030
3534,-0.400,0.025
3535,-0.400,-0.010
3536,-0.420,-0.010
3537,-0.415,-0.005
3538,-0.415,0.015
3539,-0.420,0.010
3540,-0.430,-0.005
3541,-0.440,-0.015
3542,-0.430,-0.020
3543,-0.420,-0.010
3544,-0.415,0.005
3545,-0.400,0.015
3546,-0.405,0.015
3547,-0.410,0.015
3548,-0.415,0.000
3549,-0.415,-0.010
3550,-0.410,-0.005
3551,-0.400,0.005
3552,-0.395,0.010
3553,-0.405,-0.005
3554,-0.410,-0.005
3555,-0.420,-0.010
3556,-0.415,-0.005
3557,-0.410,0.005
3558,-0.410,-0.010
3559,-0.400,-0.010
3560,-0.405,-0.025
3561,-0.425,-0.010
3562,-0.405,0.020
3563,-0.390,0.030
3564,-0.385,0.015
3565,-0.390,-0.015
3566,-0.415,-0.080
3567,-0.435,-0.165
3568,-0.430,-0.255
3569,-0.385,-0.340
3570,-0.360,-0.475
3571,-0.365,-0.685
3572,-0.375,-0.930
3573,-0.385,-1.190
3574,-0.420,-1.390
3575,-0.505,-1.470
3576,-0.570,-1.490
3577,-0.620,-1.455
3578,-0.620,-1.420
3579,-0.635,-1.380
3580,-0.635,-1.335
3581,-0.645,-1.270
3582,-0.680,-1.240
3583,-0.725,-1.220
3584,-0.765,-1.190
3585,-0.785,-1.165
3586,-0.820,-1.120
3587,-0.825,-1.050
3588,-0.860,-1.000
3589,-0.895,-0.955
3590,-0.930,-0.915
3591,-0.960,-0.865
3592,-0.980,-0.820
3593,-0.985,-0.770
3594,-0.985,-0.725
3595,-0.940,-0.630
3596,-0.895,-0.530
3597,-0.880,-0.425
3598,-0.850,-0.355
3599,-0.780,-0.280
