0,0.175,0.635
1,0.175,0.635
2,0.175,0.635
3,0.175,0.635
4,0.175,0.635
5,0.175,0.635
6,0.175,0.635
7,0.175,0.635
8,0.175,0.635
9,0.180,0.635
10,0.185,0.645
11,0.210,0.620
12,0.230,0.615
13,0.220,0.595
14,0.195,0.580
15,0.160,0.570
16,0.095,0.580
17,0.060,0.595
18,0.085,0.590
19,0.150,0.585
20,0.195,0.580
21,0.160,0.575
22,0.065,0.590
23,0.055,0.590
24,0.120,0.585
25,0.220,0.570
26,0.240,0.545
27,0.200,0.560
28,0.160,0.575
29,0.140,0.590
30,0.140,0.600
31,0.125,0.600
32,0.110,0.575
33,0.100,0.585
34,0.110,0.595
35,0.135,0.620
36,0.140,0.625
37,0.105,0.620
38,0.055,0.600
39,0.030,0.600
40,0.010,0.595
41,0.015,0.610
42,-0.015,0.610
43,-0.035,0.615
44,-0.060,0.610
45,-0.090,0.595
46,-0.125,0.620
47,-0.125,0.655
48,-0.110,0.660
49,-0.110,0.650
50,-0.110,0.605
51,-0.130,0.565
52,-0.130,0.545
53,-0.135,0.550
54,-0.140,0.565
55,-0.150,0.580
56,-0.175,0.580
57,-0.160,0.580
58,-0.165,0.580
59,-0.170,0.585
60,-0.185,0.585
61,-0.195,0.580
62,-0.180,0.570
63,-0.165,0.555
64,-0.175,0.560
65,-0.200,0.590
66,-0.215,0.590
67,-0.215,0.575
68,-0.185,0.570
69,-0.170,0.555
70,-0.190,0.550
71,-0.230,0.545
72,-0.230,0.565
73,-0.210,0.565
74,-0.175,0.545
75,-0.160,0.525
76,-0.170,0.525
77,-0.190,0.560
78,-0.195,0.560
79,-0.190,0.550
80,-0.165,0.530
81,-0.160,0.525
82,-0.180,0.540
83,-0.190,0.545
84,-0.175,0.535
85,-0.180,0.520
86,-0.175,0.520
87,-0.195,0.515
88,-0.200,0.535
89,-0.180,0.570
90,-0.185,0.570
91,-0.195,0.575
92,-0.210,0.590
93,-0.245,0.610
94,-0.240,0.625
95,-0.185,0.630
96,-0.080,0.605
97,0.025,0.560
98,0.110,0.490
99,0.170,0.400
100,0.200,0.345
101,0.205,0.310
102,0.235,0.225
103,0.330,0.100
104,0.425,-0.085
105,0.535,-0.260
106,0.600,-0.370
107,0.630,-0.395
108,0.610,-0.365
109,0.575,-0.365
110,0.550,-0.375
111,0.535,-0.340
112,0.520,-0.285
113,0.490,-0.220
114,0.445,-0.180
115,0.390,-0.130
116,0.330,-0.095
117,0.270,-0.060
118,0.220,-0.010
119,0.175,0.045
120,0.095,0.070
121,-0.020,0.095
122,-0.145,0.100
123,-0.280,0.130
124,-0.405,0.170
125,-0.490,0.200
126,-0.545,0.230
127,-0.570,0.255
128,-0.620,0.265
129,-0.660,0.285
130,-0.700,0.310
131,-0.690,0.325
132,-0.670,0.345
133,-0.660,0.355
134,-0.655,0.360
135,-0.660,0.380
136,-0.640,0.410
137,-0.615,0.445
138,-0.595,0.450
139,-0.590,0.470
140,-0.575,0.465
141,-0.580,0.470
142,-0.580,0.485
143,-0.560,0.515
144,-0.515,0.510
145,-0.485,0.530
146,-0.475,0.515
147,-0.485,0.510
148,-0.485,0.520
149,-0.465,0.525
150,-0.460,0.535
151,-0.460,0.520
152,-0.460,0.520
153,-0.470,0.510
154,-0.475,0.535
155,-0.465,0.535
156,-0.470,0.535
157,-0.485,0.535
158,-0.485,0.525
159,-0.505,0.520
160,-0.505,0.535
161,-0.500,0.545
162,-0.490,0.535
163,-0.490,0.530
164,-0.495,0.525
165,-0.505,0.530
166,-0.530,0.535
167,-0.530,0.560
168,-0.520,0.560
169,-0.500,0.555
170,-0.495,0.525
171,-0.505,0.530
172,-0.520,0.525
173,-0.515,0.535
174,-0.505,0.530
175,-0.505,0.525
176,-0.515,0.520
177,-0.515,0.510
178,-0.520,0.530
179,-0.500,0.535
180,-0.485,0.535
181,-0.495,0.530
182,-0.490,0.515
183,-0.485,0.510
184,-0.480,0.495
185,-0.480,0.505
186,-0.480,0.510
187,-0.455,0.505
188,-0.450,0.490
189,-0.435,0.480
190,-0.445,0.485
191,-0.415,0.490
192,-0.415,0.485
193,-0.405,0.475
194,-0.395,0.465
195,-0.385,0.460
196,-0.385,0.465
197,-0.370,0.480
198,-0.350,0.475
199,-0.350,0.470
200,-0.365,0.440
201,-0.375,0.430
202,-0.350,0.420
203,-0.305,0.450
204,-0.265,0.430
205,-0.255,0.420
206,-0.275,0.420
207,-0.285,0.390
208,-0.280,0.380
209,-0.240,0.390
210,-0.210,0.380
211,-0.215,0.370
212,-0.225,0.360
213,-0.220,0.340
214,-0.240,0.355
215,-0.230,0.350
216,-0.200,0.345
217,-0.190,0.320
218,-0.180,0.300
219,-0.185,0.305
220,-0.195,0.295
221,-0.185,0.310
222,-0.155,0.295
223,-0.160,0.285
224,-0.175,0.270
225,-0.185,0.260
226,-0.185,0.250
227,-0.180,0.265
228,-0.170,0.250
229,-0.170,0.250
230,-0.180,0.240
231,-0.175,0.240
232,-0.165,0.240
233,-0.145,0.255
234,-0.125,0.255
235,-0.125,0.230
236,-0.135,0.230
237,-0.160,0.210
238,-0.185,0.225
239,-0.195,0.210
240,-0.160,0.225
241,-0.145,0.215
242,-0.150,0.180
243,-0.180,0.170
244,-0.210,0.175
245,-0.190,0.190
246,-0.180,0.185
247,-0.185,0.180
248,-0.215,0.160
249,-0.235,0.150
250,-0.240,0.155
251,-0.200,0.160
252,-0.160,0.170
253,-0.145,0.165
254,-0.175,0.155
255,-0.195,0.160
256,-0.200,0.160
257,-0.190,0.175
258,-0.170,0.180
259,-0.185,0.170
260,-0.205,0.150
261,-0.220,0.150
262,-0.215,0.160
263,-0.195,0.175
264,-0.185,0.170
265,-0.195,0.165
266,-0.210,0.170
267,-0.240,0.160
268,-0.265,0.185
269,-0.275,0.175
270,-0.295,0.175
271,-0.320,0.185
272,-0.355,0.175
273,-0.375,0.160
274,-0.405,0.165
275,-0.425,0.185
276,-0.435,0.175
277,-0.450,0.180
278,-0.440,0.160
279,-0.440,0.150
280,-0.440,0.155
281,-0.430,0.170
282,-0.420,0.170
283,-0.430,0.160
284,-0.435,0.150
285,-0.455,0.140
286,-0.470,0.155
287,-0.475,0.155
288,-0.455,0.155
289,-0.460,0.135
290,-0.465,0.120
291,-0.485,0.120
292,-0.485,0.120
293,-0.470,0.125
294,-0.455,0.125
295,-0.450,0.130
296,-0.460,0.110
297,-0.460,0.105
298,-0.450,0.120
299,-0.440,0.125
300,-0.435,0.125
301,-0.455,0.120
302,-0.475,0.100
303,-0.480,0.105
304,-0.475,0.110
305,-0.445,0.110
306,-0.430,0.110
307,-0.470,0.100
308,-0.490,0.080
309,-0.505,0.075
310,-0.485,0.105
311,-0.445,0.105
312,-0.425,0.095
313,-0.430,0.080
314,-0.450,0.075
315,-0.470,0.060
316,-0.465,0.070
317,-0.455,0.085
318,-0.440,0.085
319,-0.460,0.075
320,-0.485,0.085
321,-0.485,0.085
322,-0.495,0.100
323,-0.485,0.155
324,-0.495,0.160
325,-0.495,0.170
326,-0.485,0.155
327,-0.415,0.125
328,-0.315,0.090
329,-0.205,0.070
330,-0.125,-0.010
331,-0.085,-0.090
332,-0.050,-0.165
333,-0.035,-0.235
334,0.030,-0.325
335,0.140,-0.465
336,0.255,-0.610
337,0.315,-0.745
338,0.370,-0.840
339,0.395,-0.875
340,0.400,-0.885
341,0.390,-0.885
342,0.395,-0.870
343,0.365,-0.845
344,0.345,-0.810
345,0.290,-0.755
346,0.220,-0.695
347,0.190,-0.630
348,0.170,-0.575
349,0.105,-0.525
350,0.020,-0.480
351,-0.065,-0.440
352,-0.170,-0.380
353,-0.305,-0.345
354,-0.415,-0.310
355,-0.555,-0.285
356,-0.665,-0.280
357,-0.750,-0.245
358,-0.805,-0.210
359,-0.845,-0.185
360,-0.885,-0.160
361,-0.910,-0.150
362,-0.905,-0.150
363,-0.910,-0.120
364,-0.925,-0.085
365,-0.905,-0.045
366,-0.880,-0.025
367,-0.850,-0.010
368,-0.840,-0.005
369,-0.830,0.000
370,-0.830,0.035
371,-0.810,0.055
372,-0.770,0.060
373,-0.760,0.060
374,-0.745,0.070
375,-0.730,0.070
376,-0.710,0.085
377,-0.710,0.090
378,-0.680,0.100
379,-0.690,0.110
380,-0.690,0.090
381,-0.695,0.090
382,-0.695,0.095
383,-0.700,0.100
384,-0.690,0.100
385,-0.695,0.100
386,-0.710,0.095
387,-0.705,0.090
388,-0.715,0.095
389,-0.715,0.120
390,-0.710,0.110
391,-0.720,0.115
392,-0.725,0.100
393,-0.735,0.110
394,-0.735,0.110
395,-0.715,0.120
396,-0.710,0.135
397,-0.720,0.145
398,-0.735,0.120
399,-0.750,0.130
400,-0.755,0.125
401,-0.740,0.130
402,-0.720,0.140
403,-0.730,0.150
404,-0.735,0.120
405,-0.735,0.130
406,-0.740,0.130
407,-0.730,0.145
408,-0.700,0.135
409,-0.710,0.140
410,-0.710,0.130
411,-0.715,0.125
412,-0.720,0.135
413,-0.695,0.155
414,-0.675,0.155
415,-0.665,0.155
416,-0.655,0.135
417,-0.665,0.115
418,-0.660,0.110
419,-0.655,0.115
420,-0.625,0.130
421,-0.605,0.125
422,-0.605,0.125
423,-0.605,0.120
424,-0.605,0.110
425,-0.590,0.115
426,-0.555,0.120
427,-0.535,0.105
428,-0.530,0.095
429,-0.525,0.085
430,-0.530,0.070
431,-0.505,0.095
432,-0.470,0.075
433,-0.455,0.075
434,-0.460,0.045
435,-0.455,0.035
436,-0.450,0.040
437,-0.420,0.035
438,-0.400,0.035
439,-0.400,0.035
440,-0.390,0.015
441,-0.390,-0.005
442,-0.390,0.000
443,-0.380,-0.005
444,-0.370,-0.005
445,-0.365,-0.020
446,-0.370,-0.060
447,-0.365,-0.055
448,-0.355,-0.060
449,-0.345,-0.055
450,-0.315,-0.070
451,-0.315,-0.080
452,-0.320,-0.100
453,-0.340,-0.105
454,-0.345,-0.110
455,-0.340,-0.105
456,-0.315,-0.115
457,-0.310,-0.115
458,-0.295,-0.115
459,-0.285,-0.130
460,-0.270,-0.135
461,-0.270,-0.135
462,-0.295,-0.140
463,-0.310,-0.135
464,-0.320,-0.140
465,-0.340,-0.135
466,-0.360,-0.140
467,-0.365,-0.140
468,-0.360,-0.135
469,-0.360,-0.135
470,-0.355,-0.150
471,-0.360,-0.145
472,-0.360,-0.145
473,-0.335,-0.130
474,-0.310,-0.125
475,-0.310,-0.140
476,-0.295,-0.165
477,-0.300,-0.165
478,-0.290,-0.190
479,-0.310,-0.175
480,-0.335,-0.185
481,-0.365,-0.180
482,-0.375,-0.180
483,-0.400,-0.160
484,-0.400,-0.150
485,-0.390,-0.125
486,-0.370,-0.115
487,-0.385,-0.110
488,-0.375,-0.130
489,-0.385,-0.140
490,-0.390,-0.140
491,-0.385,-0.135
492,-0.375,-0.125
493,-0.410,-0.135
494,-0.455,-0.135
495,-0.490,-0.110
496,-0.535,-0.080
497,-0.550,-0.050
498,-0.570,-0.060
499,-0.590,-0.060
500,-0.605,-0.095
501,-0.620,-0.120
502,-0.620,-0.130
503,-0.610,-0.130
504,-0.595,-0.155
505,-0.615,-0.155
506,-0.610,-0.165
507,-0.620,-0.180
508,-0.615,-0.165
509,-0.620,-0.175
510,-0.615,-0.185
511,-0.640,-0.175
512,-0.655,-0.175
513,-0.665,-0.185
514,-0.665,-0.165
515,-0.645,-0.150
516,-0.630,-0.165
517,-0.630,-0.185
518,-0.640,-0.190
519,-0.640,-0.190
520,-0.635,-0.170
521,-0.590,-0.145
522,-0.570,-0.135
523,-0.570,-0.160
524,-0.590,-0.180
525,-0.615,-0.205
526,-0.625,-0.190
527,-0.625,-0.160
528,-0.630,-0.155
529,-0.630,-0.155
530,-0.605,-0.155
531,-0.610,-0.155
532,-0.605,-0.120
533,-0.620,-0.085
534,-0.610,-0.060
535,-0.590,-0.040
536,-0.555,0.000
537,-0.540,0.005
538,-0.540,0.010
539,-0.575,-0.015
540,-0.590,-0.055
541,-0.620,-0.100
542,-0.655,-0.155
543,-0.665,-0.215
544,-0.680,-0.235
545,-0.645,-0.250
546,-0.600,-0.255
547,-0.620,-0.270
548,-0.655,-0.250
549,-0.720,-0.230
550,-0.740,-0.170
551,-0.740,-0.150
552,-0.720,-0.140
553,-0.665,-0.155
554,-0.575,-0.185
555,-0.445,-0.225
556,-0.340,-0.260
557,-0.230,-0.320
558,-0.145,-0.385
559,-0.095,-0.445
560,-0.050,-0.500
561,-0.005,-0.580
562,0.075,-0.670
563,0.200,-0.800
564,0.305,-0.920
565,0.410,-1.045
566,0.500,-1.155
567,0.560,-1.215
568,0.590,-1.225
569,0.585,-1.225
570,0.585,-1.230
571,0.555,-1.210
572,0.535,-1.180
573,0.480,-1.125
574,0.385,-1.055
575,0.310,-0.980
576,0.225,-0.900
577,0.160,-0.795
578,0.085,-0.745
579,0.035,-0.690
580,-0.050,-0.635
581,-0.185,-0.530
582,-0.365,-0.455
583,-0.575,-0.365
584,-0.760,-0.320
585,-0.905,-0.285
586,-1.025,-0.255
587,-1.110,-0.220
588,-1.150,-0.260
589,-1.190,-0.345
590,-1.205,-0.445
591,-1.200,-0.505
592,-1.205,-0.515
593,-1.180,-0.520
594,-1.165,-0.505
595,-1.150,-0.500
596,-1.125,-0.505
597,-1.140,-0.470
598,-1.155,-0.405
599,-1.165,-0.325
600,-1.155,-0.280
601,-1.130,-0.255
602,-1.095,-0.260
603,-1.060,-0.250
604,-1.010,-0.230
605,-0.980,-0.195
606,-0.965,-0.175
607,-0.975,-0.165
608,-0.980,-0.155
609,-0.995,-0.160
610,-0.990,-0.145
611,-0.985,-0.145
612,-0.975,-0.145
613,-0.980,-0.150
614,-0.960,-0.180
615,-0.925,-0.175
616,-0.915,-0.180
617,-0.910,-0.150
618,-0.935,-0.160
619,-0.985,-0.155
620,-1.005,-0.165
621,-1.030,-0.150
622,-1.055,-0.140
623,-1.060,-0.150
624,-1.070,-0.130
625,-1.075,-0.125
626,-1.080,-0.105
627,-1.085,-0.105
628,-1.080,-0.085
629,-1.055,-0.075
630,-1.040,-0.050
631,-1.040,-0.050
632,-1.025,-0.075
633,-1.035,-0.080
634,-1.040,-0.055
635,-1.030,-0.020
636,-1.025,-0.015
637,-1.010,-0.020
638,-1.010,-0.080
639,-1.010,-0.135
640,-1.010,-0.145
641,-0.995,-0.115
642,-0.980,-0.040
643,-0.995,0.045
644,-1.005,0.100
645,-1.015,0.090
646,-1.000,0.060
647,-0.950,-0.015
648,-0.915,-0.095
649,-0.875,-0.175
650,-0.885,-0.235
651,-0.935,-0.260
652,-0.960,-0.265
653,-0.955,-0.255
654,-0.925,-0.230
655,-0.875,-0.205
656,-0.835,-0.200
657,-0.835,-0.190
658,-0.855,-0.160
659,-0.865,-0.155
660,-0.880,-0.140
661,-0.880,-0.150
662,-0.870,-0.160
663,-0.835,-0.180
664,-0.815,-0.165
665,-0.800,-0.155
666,-0.780,-0.145
667,-0.760,-0.140
668,-0.740,-0.180
669,-0.720,-0.200
670,-0.720,-0.200
671,-0.710,-0.190
672,-0.690,-0.190
673,-0.685,-0.225
674,-0.675,-0.240
675,-0.685,-0.235
676,-0.635,-0.210
677,-0.600,-0.195
678,-0.565,-0.205
679,-0.570,-0.220
680,-0.595,-0.220
681,-0.605,-0.225
682,-0.590,-0.250
683,-0.555,-0.260
684,-0.545,-0.265
685,-0.555,-0.270
686,-0.560,-0.290
687,-0.565,-0.310
688,-0.580,-0.315
689,-0.570,-0.300
690,-0.550,-0.265
691,-0.515,-0.250
692,-0.465,-0.240
693,-0.460,-0.275
694,-0.465,-0.315
695,-0.495,-0.365
696,-0.545,-0.410
697,-0.580,-0.410
698,-0.570,-0.415
699,-0.565,-0.415
700,-0.550,-0.385
701,-0.510,-0.360
702,-0.500,-0.345
703,-0.515,-0.340
704,-0.580,-0.355
705,-0.615,-0.390
706,-0.605,-0.410
707,-0.560,-0.400
708,-0.540,-0.385
709,-0.550,-0.370
710,-0.600,-0.370
711,-0.640,-0.375
712,-0.660,-0.380
713,-0.640,-0.370
714,-0.605,-0.355
715,-0.595,-0.350
716,-0.575,-0.340
717,-0.580,-0.340
718,-0.615,-0.335
719,-0.630,-0.320
720,-0.625,-0.350
721,-0.610,-0.360
722,-0.600,-0.385
723,-0.610,-0.375
724,-0.630,-0.330
725,-0.620,-0.260
726,-0.610,-0.210
727,-0.615,-0.200
728,-0.635,-0.230
729,-0.665,-0.305
730,-0.705,-0.325
731,-0.735,-0.345
732,-0.765,-0.355
733,-0.810,-0.365
734,-0.815,-0.350
735,-0.815,-0.325
736,-0.805,-0.270
737,-0.795,-0.250
738,-0.815,-0.300
739,-0.860,-0.365
740,-0.885,-0.420
741,-0.885,-0.425
742,-0.855,-0.410
743,-0.830,-0.395
744,-0.820,-0.375
745,-0.845,-0.385
746,-0.870,-0.410
747,-0.845,-0.430
748,-0.820,-0.420
749,-0.805,-0.395
750,-0.820,-0.380
751,-0.840,-0.385
752,-0.865,-0.395
753,-0.855,-0.400
754,-0.860,-0.395
755,-0.850,-0.380
756,-0.800,-0.380
757,-0.775,-0.385
758,-0.770,-0.400
759,-0.795,-0.405
760,-0.845,-0.405
761,-0.870,-0.405
762,-0.870,-0.425
763,-0.875,-0.455
764,-0.890,-0.495
765,-0.915,-0.460
766,-0.915,-0.425
767,-0.890,-0.360
768,-0.850,-0.320
769,-0.840,-0.310
770,-0.855,-0.335
771,-0.880,-0.365
772,-0.895,-0.370
773,-0.900,-0.350
774,-0.865,-0.320
775,-0.850,-0.315
776,-0.855,-0.345
777,-0.860,-0.365
778,-0.895,-0.365
779,-0.910,-0.345
780,-0.885,-0.320
781,-0.850,-0.330
782,-0.830,-0.350
783,-0.840,-0.385
784,-0.850,-0.405
785,-0.860,-0.375
786,-0.870,-0.365
787,-0.900,-0.345
788,-0.930,-0.335
789,-0.965,-0.345
790,-0.930,-0.340
791,-0.830,-0.340
792,-0.655,-0.390
793,-0.480,-0.440
794,-0.360,-0.495
795,-0.295,-0.575
796,-0.230,-0.665
797,-0.200,-0.715
798,-0.180,-0.780
799,-0.145,-0.870
800,-0.080,-0.965
801,-0.025,-1.080
802,0.060,-1.225
803,0.145,-1.340
804,0.205,-1.435
805,0.210,-1.495
806,0.185,-1.525
807,0.140,-1.505
808,0.100,-1.480
809,0.075,-1.440
810,0.050,-1.400
811,-0.015,-1.370
812,-0.095,-1.325
813,-0.175,-1.275
814,-0.240,-1.210
815,-0.295,-1.160
816,-0.355,-1.115
817,-0.450,-1.100
818,-0.545,-1.040
819,-0.670,-0.975
820,-0.840,-0.900
821,-0.995,-0.845
822,-1.130,-0.805
823,-1.240,-0.770
824,-1.345,-0.755
825,-1.460,-0.735
826,-1.525,-0.675
827,-1.555,-0.630
828,-1.575,-0.605
829,-1.580,-0.600
830,-1.565,-0.600
831,-1.545,-0.575
832,-1.505,-0.545
833,-1.495,-0.505
834,-1.465,-0.490
835,-1.470,-0.485
836,-1.450,-0.485
837,-1.430,-0.465
838,-1.405,-0.425
839,-1.375,-0.400
840,-1.325,-0.380
841,-1.300,-0.370
842,-1.300,-0.365
843,-1.295,-0.365
844,-1.270,-0.350
845,-1.240,-0.335
846,-1.205,-0.305
847,-1.190,-0.310
848,-1.160,-0.310
849,-1.155,-0.315
850,-1.145,-0.305
851,-1.130,-0.280
852,-1.100,-0.280
853,-1.105,-0.285
854,-1.115,-0.295
855,-1.120,-0.295
856,-1.120,-0.295
857,-1.110,-0.275
858,-1.100,-0.265
859,-1.100,-0.275
860,-1.120,-0.290
861,-1.115,-0.295
862,-1.110,-0.265
863,-1.100,-0.245
864,-1.095,-0.235
865,-1.095,-0.240
866,-1.095,-0.260
867,-1.100,-0.260
868,-1.095,-0.240
869,-1.100,-0.235
870,-1.095,-0.245
871,-1.110,-0.235
872,-1.110,-0.240
873,-1.110,-0.245
874,-1.100,-0.245
875,-1.090,-0.225
876,-1.080,-0.225
877,-1.085,-0.235
878,-1.090,-0.240
879,-1.090,-0.235
880,-1.085,-0.225
881,-1.070,-0.225
882,-1.060,-0.215
883,-1.065,-0.200
884,-1.070,-0.210
885,-1.070,-0.220
886,-1.070,-0.205
887,-1.045,-0.205
888,-1.020,-0.210
889,-1.020,-0.215
890,-1.030,-0.205
891,-1.020,-0.215
892,-1.030,-0.210
893,-0.990,-0.205
894,-0.965,-0.210
895,-0.960,-0.200
896,-0.965,-0.210
897,-0.955,-0.235
898,-0.960,-0.215
899,-0.930,-0.210
900,-0.900,-0.210
901,-0.905,-0.215
902,-0.890,-0.220
903,-0.885,-0.240
904,-0.865,-0.235
905,-0.855,-0.205
906,-0.835,-0.220
907,-0.825,-0.220
908,-0.820,-0.230
909,-0.815,-0.240
910,-0.805,-0.245
911,-0.790,-0.240
912,-0.760,-0.245
913,-0.755,-0.245
914,-0.735,-0.260
915,-0.740,-0.280
916,-0.725,-0.275
917,-0.720,-0.270
918,-0.700,-0.265
919,-0.690,-0.280
920,-0.675,-0.290
921,-0.675,-0.300
922,-0.675,-0.310
923,-0.655,-0.305
924,-0.635,-0.330
925,-0.635,-0.315
926,-0.640,-0.330
927,-0.645,-0.330
928,-0.640,-0.335
929,-0.625,-0.330
930,-0.615,-0.325
931,-0.600,-0.345
932,-0.610,-0.355
933,-0.610,-0.360
934,-0.600,-0.345
935,-0.575,-0.350
936,-0.570,-0.355
937,-0.575,-0.360
938,-0.570,-0.370
939,-0.575,-0.385
940,-0.565,-0.375
941,-0.555,-0.375
942,-0.560,-0.380
943,-0.560,-0.390
944,-0.550,-0.405
945,-0.575,-0.430
946,-0.585,-0.430
947,-0.595,-0.420
948,-0.610,-0.440
949,-0.600,-0.435
950,-0.600,-0.455
951,-0.590,-0.460
952,-0.580,-0.435
953,-0.570,-0.435
954,-0.550,-0.435
955,-0.545,-0.445
956,-0.550,-0.460
957,-0.565,-0.475
958,-0.570,-0.450
959,-0.555,-0.440
960,-0.540,-0.435
961,-0.555,-0.445
962,-0.575,-0.435
963,-0.585,-0.445
964,-0.585,-0.440
965,-0.585,-0.440
966,-0.570,-0.445
967,-0.560,-0.450
968,-0.565,-0.470
969,-0.580,-0.455
970,-0.590,-0.455
971,-0.600,-0.450
972,-0.615,-0.445
973,-0.650,-0.475
974,-0.695,-0.500
975,-0.735,-0.535
976,-0.770,-0.550
977,-0.785,-0.545
978,-0.790,-0.505
979,-0.820,-0.460
980,-0.840,-0.410
981,-0.860,-0.410
982,-0.865,-0.390
983,-0.870,-0.370
984,-0.880,-0.350
985,-0.870,-0.340
986,-0.880,-0.340
987,-0.885,-0.340
988,-0.890,-0.340
989,-0.865,-0.330
990,-0.855,-0.350
991,-0.870,-0.370
992,-0.870,-0.370
993,-0.870,-0.395
994,-0.870,-0.390
995,-0.865,-0.385
996,-0.855,-0.375
997,-0.850,-0.370
998,-0.860,-0.390
999,-0.850,-0.390
1000,-0.845,-0.375
1001,-0.830,-0.385
1002,-0.840,-0.380
1003,-0.835,-0.380
1004,-0.835,-0.390
1005,-0.830,-0.365
1006,-0.825,-0.365
1007,-0.815,-0.360
1008,-0.815,-0.370
1009,-0.815,-0.380
1010,-0.830,-0.385
1011,-0.815,-0.365
1012,-0.825,-0.350
1013,-0.800,-0.350
1014,-0.795,-0.360
1015,-0.815,-0.360
1016,-0.820,-0.365
1017,-0.810,-0.340
1018,-0.800,-0.325
1019,-0.790,-0.330
1020,-0.795,-0.330
1021,-0.805,-0.335
1022,-0.800,-0.330
1023,-0.800,-0.300
1024,-0.810,-0.285
1025,-0.815,-0.260
1026,-0.815,-0.235
1027,-0.830,-0.220
1028,-0.845,-0.215
1029,-0.830,-0.200
1030,-0.780,-0.195
1031,-0.675,-0.220
1032,-0.580,-0.270
1033,-0.485,-0.340
1034,-0.400,-0.410
1035,-0.350,-0.480
1036,-0.330,-0.545
1037,-0.295,-0.595
1038,-0.250,-0.700
1039,-0.155,-0.830
1040,-0.070,-0.995
1041,-0.010,-1.135
1042,0.080,-1.240
1043,0.135,-1.300
1044,0.145,-1.330
1045,0.130,-1.345
1046,0.125,-1.330
1047,0.115,-1.305
1048,0.115,-1.250
1049,0.100,-1.190
1050,0.045,-1.120
1051,-0.010,-1.080
1052,-0.085,-1.040
1053,-0.130,-0.970
1054,-0.160,-0.905
1055,-0.210,-0.885
1056,-0.275,-0.840
1057,-0.385,-0.835
1058,-0.495,-0.835
1059,-0.630,-0.805
1060,-0.750,-0.715
1061,-0.860,-0.600
1062,-1.010,-0.495
1063,-1.115,-0.450
1064,-1.190,-0.415
1065,-1.230,-0.385
1066,-1.230,-0.360
1067,-1.240,-0.340
1068,-1.240,-0.315
1069,-1.245,-0.290
1070,-1.235,-0.270
1071,-1.240,-0.240
1072,-1.240,-0.205
1073,-1.220,-0.190
1074,-1.195,-0.185
1075,-1.170,-0.155
1076,-1.140,-0.120
1077,-1.125,-0.075
1078,-1.100,-0.035
1079,-1.075,0.000
1080,-1.045,0.025
1081,-1.040,0.030
1082,-1.030,0.045
1083,-1.000,0.075
1084,-0.950,0.095
1085,-0.925,0.115
1086,-0.920,0.130
1087,-0.915,0.135
1088,-0.910,0.125
1089,-0.905,0.110
1090,-0.895,0.130
1091,-0.885,0.165
1092,-0.870,0.180
1093,-0.880,0.215
1094,-0.910,0.225
1095,-0.910,0.235
1096,-0.895,0.240
1097,-0.875,0.255
1098,-0.890,0.240
1099,-0.885,0.250
1100,-0.890,0.245
1101,-0.890,0.255
1102,-0.870,0.265
1103,-0.860,0.275
1104,-0.890,0.275
1105,-0.890,0.300
1106,-0.915,0.315
1107,-0.890,0.340
1108,-0.870,0.385
1109,-0.870,0.380
1110,-0.860,0.390
1111,-0.885,0.365
1112,-0.875,0.375
1113,-0.885,0.400
1114,-0.880,0.435
1115,-0.860,0.450
1116,-0.855,0.455
1117,-0.865,0.440
1118,-0.870,0.440
1119,-0.875,0.480
1120,-0.860,0.525
1121,-0.840,0.550
1122,-0.840,0.560
1123,-0.820,0.535
1124,-0.850,0.540
1125,-0.840,0.550
1126,-0.820,0.550
1127,-0.810,0.560
1128,-0.820,0.565
1129,-0.800,0.555
1130,-0.790,0.550
1131,-0.765,0.565
1132,-0.755,0.585
1133,-0.730,0.600
1134,-0.730,0.605
1135,-0.725,0.595
1136,-0.735,0.605
1137,-0.715,0.615
1138,-0.700,0.635
1139,-0.680,0.630
1140,-0.675,0.625
1141,-0.680,0.620
1142,-0.675,0.620
1143,-0.670,0.620
1144,-0.650,0.650
1145,-0.620,0.660
1146,-0.600,0.665
1147,-0.610,0.640
1148,-0.590,0.640
1149,-0.585,0.655
1150,-0.580,0.680
1151,-0.540,0.670
1152,-0.530,0.665
1153,-0.535,0.660
1154,-0.535,0.650
1155,-0.525,0.660
1156,-0.510,0.675
1157,-0.490,0.675
1158,-0.470,0.655
1159,-0.465,0.645
1160,-0.465,0.650
1161,-0.470,0.645
1162,-0.450,0.665
1163,-0.420,0.660
1164,-0.420,0.660
1165,-0.430,0.650
1166,-0.440,0.650
1167,-0.440,0.665
1168,-0.425,0.670
1169,-0.405,0.675
1170,-0.410,0.670
1171,-0.410,0.665
1172,-0.400,0.670
1173,-0.390,0.685
1174,-0.380,0.695
1175,-0.385,0.690
1176,-0.375,0.700
1177,-0.385,0.690
1178,-0.380,0.715
1179,-0.350,0.710
1180,-0.355,0.740
1181,-0.350,0.750
1182,-0.375,0.730
1183,-0.385,0.715
1184,-0.405,0.710
1185,-0.410,0.715
1186,-0.390,0.720
1187,-0.370,0.725
1188,-0.370,0.735
1189,-0.380,0.715
1190,-0.390,0.705
1191,-0.375,0.710
1192,-0.360,0.730
1193,-0.360,0.730
1194,-0.360,0.735
1195,-0.380,0.735
1196,-0.380,0.745
1197,-0.375,0.760
1198,-0.380,0.780
1199,-0.365,0.785
1200,-0.395,0.810
1201,-0.385,0.800
1202,-0.390,0.790
1203,-0.415,0.810
1204,-0.390,0.815
1205,-0.370,0.830
1206,-0.360,0.830
1207,-0.365,0.825
1208,-0.390,0.835
1209,-0.420,0.845
1210,-0.435,0.870
1211,-0.450,0.850
1212,-0.485,0.845
1213,-0.510,0.835
1214,-0.545,0.865
1215,-0.580,0.890
1216,-0.595,0.925
1217,-0.605,0.945
1218,-0.615,0.945
1219,-0.620,0.930
1220,-0.640,0.930
1221,-0.640,0.945
1222,-0.630,0.945
1223,-0.635,0.950
1224,-0.650,0.955
1225,-0.660,0.950
1226,-0.680,0.935
1227,-0.675,0.960
1228,-0.670,0.945
1229,-0.665,0.945
1230,-0.655,0.945
1231,-0.660,0.935
1232,-0.680,0.940
1233,-0.695,0.945
1234,-0.685,0.960
1235,-0.685,0.955
1236,-0.690,0.960
1237,-0.675,0.955
1238,-0.685,0.960
1239,-0.685,0.960
1240,-0.685,0.970
1241,-0.670,0.965
1242,-0.665,0.955
1243,-0.660,0.950
1244,-0.680,0.940
1245,-0.685,0.955
1246,-0.680,0.970
1247,-0.665,0.960
1248,-0.660,0.945
1249,-0.680,0.950
1250,-0.695,0.970
1251,-0.685,0.990
1252,-0.665,1.015
1253,-0.650,1.010
1254,-0.650,0.990
1255,-0.655,0.975
1256,-0.665,0.980
1257,-0.665,0.970
1258,-0.655,0.990
1259,-0.640,0.985
1260,-0.640,0.985
1261,-0.650,0.995
1262,-0.665,0.995
1263,-0.650,1.025
1264,-0.650,1.045
1265,-0.670,1.055
1266,-0.685,1.085
1267,-0.715,1.105
1268,-0.705,1.110
1269,-0.675,1.125
1270,-0.595,1.115
1271,-0.490,1.080
1272,-0.385,1.020
1273,-0.285,0.960
1274,-0.205,0.880
1275,-0.175,0.790
1276,-0.140,0.750
1277,-0.075,0.675
1278,0.020,0.545
1279,0.105,0.365
1280,0.190,0.210
1281,0.260,0.075
1282,0.320,0.000
1283,0.375,-0.035
1284,0.380,-0.040
1285,0.360,-0.035
1286,0.350,-0.045
1287,0.325,-0.010
1288,0.315,0.040
1289,0.300,0.080
1290,0.230,0.135
1291,0.145,0.180
1292,0.055,0.235
1293,-0.005,0.290
1294,-0.055,0.350
1295,-0.145,0.405
1296,-0.250,0.460
1297,-0.410,0.505
1298,-0.555,0.560
1299,-0.700,0.600
1300,-0.815,0.640
1301,-0.925,0.655
1302,-1.010,0.690
1303,-1.080,0.710
1304,-1.125,0.735
1305,-1.155,0.760
1306,-1.160,0.785
1307,-1.160,0.800
1308,-1.155,0.830
1309,-1.155,0.835
1310,-1.165,0.845
1311,-1.135,0.890
1312,-1.100,0.915
1313,-1.055,0.930
1314,-1.035,0.955
1315,-1.015,0.970
1316,-1.010,0.965
1317,-0.985,0.995
1318,-0.960,1.020
1319,-0.935,1.025
1320,-0.900,1.025
1321,-0.895,1.035
1322,-0.910,1.045
1323,-0.880,1.065
1324,-0.865,1.070
1325,-0.825,1.065
1326,-0.815,1.060
1327,-0.810,1.050
1328,-0.815,1.050
1329,-0.820,1.045
1330,-0.825,1.060
1331,-0.810,1.050
1332,-0.820,1.040
1333,-0.825,1.035
1334,-0.825,1.040
1335,-0.815,1.045
1336,-0.820,1.040
1337,-0.810,1.050
1338,-0.810,1.040
1339,-0.815,1.045
1340,-0.830,1.030
1341,-0.820,1.050
1342,-0.810,1.030
1343,-0.805,1.040
1344,-0.805,1.040
1345,-0.815,1.020
1346,-0.825,1.015
1347,-0.835,1.030
1348,-0.820,1.035
1349,-0.795,1.030
1350,-0.795,1.030
1351,-0.805,1.020
1352,-0.805,1.005
1353,-0.815,1.005
1354,-0.795,1.015
1355,-0.800,1.010
1356,-0.785,1.005
1357,-0.780,0.985
1358,-0.790,0.985
1359,-0.780,0.985
1360,-0.770,0.995
1361,-0.750,0.990
1362,-0.750,0.985
1363,-0.755,0.955
1364,-0.745,0.940
1365,-0.720,0.950
1366,-0.690,0.950
1367,-0.690,0.935
1368,-0.680,0.930
1369,-0.685,0.910
1370,-0.685,0.880
1371,-0.665,0.900
1372,-0.640,0.900
1373,-0.615,0.890
1374,-0.605,0.875
1375,-0.610,0.860
1376,-0.610,0.845
1377,-0.595,0.835
1378,-0.595,0.825
1379,-0.575,0.825
1380,-0.545,0.815
1381,-0.535,0.805
1382,-0.545,0.780
1383,-0.515,0.785
1384,-0.500,0.790
1385,-0.490,0.780
1386,-0.475,0.755
1387,-0.460,0.725
1388,-0.460,0.705
1389,-0.450,0.705
1390,-0.435,0.710
1391,-0.420,0.685
1392,-0.420,0.670
1393,-0.425,0.665
1394,-0.400,0.645
1395,-0.405,0.635
1396,-0.400,0.630
1397,-0.375,0.605
1398,-0.370,0.590
1399,-0.380,0.575
1400,-0.385,0.555
1401,-0.360,0.555
1402,-0.365,0.545
1403,-0.335,0.530
1404,-0.340,0.515
1405,-0.330,0.480
1406,-0.335,0.480
1407,-0.335,0.485
1408,-0.310,0.480
1409,-0.315,0.470
1410,-0.305,0.465
1411,-0.320,0.425
1412,-0.335,0.420
1413,-0.330,0.435
1414,-0.310,0.425
1415,-0.300,0.405
1416,-0.315,0.380
1417,-0.330,0.360
1418,-0.360,0.350
1419,-0.375,0.340
1420,-0.370,0.350
1421,-0.325,0.335
1422,-0.315,0.330
1423,-0.315,0.325
1424,-0.330,0.310
1425,-0.335,0.310
1426,-0.310,0.305
1427,-0.310,0.300
1428,-0.315,0.295
1429,-0.305,0.280
1430,-0.315,0.265
1431,-0.325,0.270
1432,-0.320,0.280
1433,-0.325,0.280
1434,-0.345,0.265
1435,-0.360,0.250
1436,-0.385,0.255
1437,-0.370,0.275
1438,-0.355,0.265
1439,-0.355,0.255
1440,-0.365,0.275
1441,-0.365,0.255
1442,-0.375,0.240
1443,-0.405,0.240
1444,-0.435,0.240
1445,-0.450,0.245
1446,-0.490,0.255
1447,-0.535,0.250
1448,-0.585,0.240
1449,-0.585,0.245
1450,-0.595,0.265
1451,-0.600,0.240
1452,-0.610,0.225
1453,-0.615,0.215
1454,-0.615,0.195
1455,-0.615,0.200
1456,-0.620,0.220
1457,-0.605,0.215
1458,-0.605,0.195
1459,-0.620,0.175
1460,-0.625,0.160
1461,-0.625,0.165
1462,-0.625,0.165
1463,-0.610,0.155
1464,-0.595,0.155
1465,-0.610,0.135
1466,-0.610,0.135
1467,-0.610,0.130
1468,-0.600,0.140
1469,-0.590,0.130
1470,-0.595,0.130
1471,-0.590,0.105
1472,-0.610,0.090
1473,-0.620,0.100
1474,-0.600,0.095
1475,-0.585,0.100
1476,-0.595,0.075
1477,-0.605,0.080
1478,-0.610,0.065
1479,-0.615,0.070
1480,-0.605,0.085
1481,-0.580,0.065
1482,-0.595,0.060
1483,-0.595,0.045
1484,-0.600,0.050
1485,-0.600,0.050
1486,-0.595,0.045
1487,-0.580,0.040
1488,-0.575,0.045
1489,-0.580,0.020
1490,-0.585,0.015
1491,-0.575,0.015
1492,-0.565,0.005
1493,-0.550,-0.015
1494,-0.555,-0.010
1495,-0.565,0.000
1496,-0.590,0.000
1497,-0.580,0.035
1498,-0.565,0.045
1499,-0.555,0.060
1500,-0.570,0.070
1501,-0.575,0.060
1502,-0.590,0.060
1503,-0.570,0.060
1504,-0.505,0.035
1505,-0.405,0.000
1506,-0.280,-0.065
1507,-0.150,-0.140
1508,0.000,-0.235
1509,0.115,-0.305
1510,0.145,-0.390
1511,0.140,-0.455
1512,0.150,-0.535
1513,0.175,-0.630
1514,0.205,-0.785
1515,0.250,-0.915
1516,0.320,-1.030
1517,0.410,-1.140
1518,0.460,-1.210
1519,0.480,-1.240
1520,0.475,-1.245
1521,0.470,-1.240
1522,0.480,-1.215
1523,0.475,-1.175
1524,0.440,-1.135
1525,0.350,-1.085
1526,0.255,-1.030
1527,0.170,-0.965
1528,0.090,-0.895
1529,0.035,-0.855
1530,-0.055,-0.790
1531,-0.180,-0.765
1532,-0.340,-0.700
1533,-0.485,-0.645
1534,-0.610,-0.595
1535,-0.705,-0.560
1536,-0.815,-0.535
1537,-0.915,-0.505
1538,-1.015,-0.485
1539,-1.060,-0.435
1540,-1.080,-0.405
1541,-1.085,-0.375
1542,-1.085,-0.365
1543,-1.090,-0.375
1544,-1.080,-0.345
1545,-1.075,-0.315
1546,-1.055,-0.280
1547,-1.035,-0.260
1548,-1.025,-0.245
1549,-0.990,-0.235
1550,-0.965,-0.215
1551,-0.925,-0.200
1552,-0.890,-0.155
1553,-0.855,-0.145
1554,-0.835,-0.120
1555,-0.830,-0.115
1556,-0.815,-0.095
1557,-0.780,-0.085
1558,-0.755,-0.075
1559,-0.720,-0.065
1560,-0.700,-0.070
1561,-0.690,-0.060
1562,-0.685,-0.060
1563,-0.675,-0.065
1564,-0.655,-0.045
1565,-0.655,-0.050
1566,-0.645,-0.055
1567,-0.660,-0.080
1568,-0.685,-0.070
1569,-0.680,-0.060
1570,-0.660,-0.050
1571,-0.645,-0.065
1572,-0.650,-0.060
1573,-0.660,-0.075
1574,-0.680,-0.070
1575,-0.695,-0.070
1576,-0.685,-0.070
1577,-0.680,-0.070
1578,-0.675,-0.080
1579,-0.680,-0.090
1580,-0.695,-0.085
1581,-0.715,-0.065
1582,-0.710,-0.050
1583,-0.680,-0.040
1584,-0.680,-0.040
1585,-0.685,-0.060
1586,-0.695,-0.065
1587,-0.705,-0.055
1588,-0.675,-0.060
1589,-0.665,-0.055
1590,-0.680,-0.055
1591,-0.695,-0.055
1592,-0.695,-0.070
1593,-0.685,-0.070
1594,-0.675,-0.055
1595,-0.675,-0.060
1596,-0.665,-0.050
1597,-0.660,-0.070
1598,-0.660,-0.095
1599,-0.655,-0.080
1600,-0.640,-0.080
1601,-0.630,-0.075
1602,-0.620,-0.070
1603,-0.620,-0.085
1604,-0.620,-0.095
1605,-0.610,-0.075
1606,-0.605,-0.075
1607,-0.595,-0.065
1608,-0.590,-0.080
1609,-0.585,-0.090
1610,-0.580,-0.115
1611,-0.570,-0.110
1612,-0.535,-0.100
1613,-0.515,-0.100
1614,-0.510,-0.110
1615,-0.495,-0.130
1616,-0.505,-0.145
1617,-0.475,-0.140
1618,-0.475,-0.135
1619,-0.450,-0.140
1620,-0.435,-0.150
1621,-0.420,-0.165
1622,-0.435,-0.175
1623,-0.410,-0.175
1624,-0.385,-0.160
1625,-0.380,-0.160
1626,-0.375,-0.175
1627,-0.380,-0.195
1628,-0.370,-0.210
1629,-0.360,-0.230
1630,-0.345,-0.245
1631,-0.330,-0.250
1632,-0.325,-0.250
1633,-0.315,-0.250
1634,-0.330,-0.265
1635,-0.305,-0.270
1636,-0.280,-0.265
1637,-0.265,-0.280
1638,-0.260,-0.285
1639,-0.265,-0.300
1640,-0.260,-0.305
1641,-0.245,-0.305
1642,-0.235,-0.315
1643,-0.215,-0.345
1644,-0.210,-0.360
1645,-0.220,-0.365
1646,-0.230,-0.345
1647,-0.215,-0.335
1648,-0.200,-0.315
1649,-0.190,-0.320
1650,-0.190,-0.330
1651,-0.195,-0.345
1652,-0.210,-0.360
1653,-0.210,-0.370
1654,-0.205,-0.375
1655,-0.195,-0.375
1656,-0.205,-0.380
1657,-0.210,-0.390
1658,-0.220,-0.420
1659,-0.230,-0.435
1660,-0.235,-0.425
1661,-0.240,-0.450
1662,-0.230,-0.455
1663,-0.235,-0.485
1664,-0.245,-0.460
1665,-0.245,-0.435
1666,-0.220,-0.435
1667,-0.200,-0.430
1668,-0.200,-0.455
1669,-0.205,-0.465
1670,-0.220,-0.455
1671,-0.220,-0.440
1672,-0.225,-0.405
1673,-0.205,-0.415
1674,-0.210,-0.425
1675,-0.240,-0.440
1676,-0.260,-0.450
1677,-0.265,-0.455
1678,-0.265,-0.460
1679,-0.265,-0.460
1680,-0.260,-0.460
1681,-0.260,-0.470
1682,-0.255,-0.455
1683,-0.260,-0.440
1684,-0.270,-0.445
1685,-0.295,-0.435
1686,-0.320,-0.430
1687,-0.350,-0.450
1688,-0.380,-0.465
1689,-0.410,-0.460
1690,-0.430,-0.455
1691,-0.455,-0.460
1692,-0.455,-0.440
1693,-0.475,-0.455
1694,-0.495,-0.445
1695,-0.505,-0.440
1696,-0.495,-0.430
1697,-0.490,-0.410
1698,-0.490,-0.430
1699,-0.485,-0.445
1700,-0.490,-0.455
1701,-0.495,-0.465
1702,-0.505,-0.460
1703,-0.500,-0.445
1704,-0.510,-0.450
1705,-0.525,-0.475
1706,-0.520,-0.485
1707,-0.510,-0.465
1708,-0.490,-0.460
1709,-0.490,-0.490
1710,-0.490,-0.495
1711,-0.500,-0.505
1712,-0.510,-0.495
1713,-0.515,-0.485
1714,-0.525,-0.465
1715,-0.505,-0.480
1716,-0.505,-0.490
1717,-0.510,-0.495
1718,-0.515,-0.495
1719,-0.510,-0.510
1720,-0.500,-0.490
1721,-0.490,-0.505
1722,-0.500,-0.500
1723,-0.485,-0.495
1724,-0.500,-0.520
1725,-0.505,-0.510
1726,-0.515,-0.515
1727,-0.510,-0.535
1728,-0.490,-0.525
1729,-0.480,-0.530
1730,-0.475,-0.520
1731,-0.475,-0.520
1732,-0.470,-0.505
1733,-0.475,-0.500
1734,-0.480,-0.500
1735,-0.475,-0.510
1736,-0.490,-0.520
1737,-0.495,-0.510
1738,-0.470,-0.495
1739,-0.465,-0.495
1740,-0.455,-0.480
1741,-0.465,-0.485
1742,-0.480,-0.480
1743,-0.495,-0.460
1744,-0.480,-0.450
1745,-0.475,-0.415
1746,-0.465,-0.425
1747,-0.425,-0.435
1748,-0.360,-0.445
1749,-0.245,-0.460
1750,-0.105,-0.490
1751,0.035,-0.545
1752,0.140,-0.615
1753,0.235,-0.720
1754,0.280,-0.795
1755,0.305,-0.855
1756,0.330,-0.895
1757,0.380,-0.970
1758,0.440,-1.065
1759,0.515,-1.205
1760,0.565,-1.325
1761,0.655,-1.450
1762,0.715,-1.540
1763,0.730,-1.635
1764,0.720,-1.670
1765,0.685,-1.665
1766,0.635,-1.645
1767,0.585,-1.600
1768,0.530,-1.560
1769,0.455,-1.515
1770,0.345,-1.440
1771,0.240,-1.400
1772,0.160,-1.350
1773,0.070,-1.290
1774,-0.030,-1.235
1775,-0.140,-1.185
1776,-0.260,-1.170
1777,-0.390,-1.125
1778,-0.540,-1.065
1779,-0.670,-0.995
1780,-0.780,-0.940
1781,-0.865,-0.900
1782,-0.960,-0.885
1783,-1.065,-0.845
1784,-1.140,-0.795
1785,-1.165,-0.750
1786,-1.170,-0.720
1787,-1.150,-0.720
1788,-1.130,-0.715
1789,-1.130,-0.705
1790,-1.130,-0.685
1791,-1.115,-0.645
1792,-1.090,-0.610
1793,-1.050,-0.580
1794,-1.015,-0.560
1795,-1.015,-0.545
1796,-0.985,-0.525
1797,-0.945,-0.490
1798,-0.910,-0.480
1799,-0.875,-0.470
1800,-0.845,-0.475
1801,-0.825,-0.465
1802,-0.815,-0.440
1803,-0.785,-0.405
1804,-0.755,-0.385
1805,-0.735,-0.375
1806,-0.715,-0.370
1807,-0.695,-0.375
1808,-0.705,-0.390
1809,-0.715,-0.385
1810,-0.705,-0.385
1811,-0.680,-0.385
1812,-0.670,-0.375
1813,-0.690,-0.385
1814,-0.695,-0.370
1815,-0.685,-0.375
1816,-0.675,-0.385
1817,-0.665,-0.410
1818,-0.670,-0.415
1819,-0.685,-0.405
1820,-0.685,-0.385
1821,-0.675,-0.360
1822,-0.675,-0.335
1823,-0.675,-0.325
1824,-0.690,-0.330
1825,-0.680,-0.345
1826,-0.685,-0.365
1827,-0.690,-0.375
1828,-0.685,-0.355
1829,-0.685,-0.345
1830,-0.690,-0.335
1831,-0.690,-0.350
1832,-0.700,-0.375
1833,-0.685,-0.365
1834,-0.680,-0.335
1835,-0.670,-0.325
1836,-0.665,-0.320
1837,-0.670,-0.345
1838,-0.680,-0.345
1839,-0.695,-0.330
1840,-0.690,-0.325
1841,-0.660,-0.320
1842,-0.655,-0.320
1843,-0.655,-0.345
1844,-0.640,-0.360
1845,-0.640,-0.350
1846,-0.620,-0.345
1847,-0.610,-0.325
1848,-0.600,-0.325
1849,-0.590,-0.330
1850,-0.590,-0.345
1851,-0.580,-0.340
1852,-0.565,-0.315
1853,-0.535,-0.315
1854,-0.525,-0.335
1855,-0.530,-0.370
1856,-0.525,-0.375
1857,-0.490,-0.365
1858,-0.460,-0.365
1859,-0.435,-0.365
1860,-0.430,-0.365
1861,-0.420,-0.370
1862,-0.430,-0.390
1863,-0.425,-0.390
1864,-0.395,-0.390
1865,-0.385,-0.395
1866,-0.370,-0.400
1867,-0.360,-0.395
1868,-0.355,-0.405
1869,-0.335,-0.400
1870,-0.320,-0.415
1871,-0.300,-0.420
1872,-0.300,-0.425
1873,-0.295,-0.440
1874,-0.290,-0.445
1875,-0.270,-0.450
1876,-0.255,-0.435
1877,-0.250,-0.435
1878,-0.240,-0.435
1879,-0.235,-0.455
1880,-0.240,-0.465
1881,-0.225,-0.470
1882,-0.205,-0.470
1883,-0.200,-0.480
1884,-0.210,-0.480
1885,-0.210,-0.495
1886,-0.215,-0.505
1887,-0.200,-0.515
1888,-0.185,-0.520
1889,-0.165,-0.515
1890,-0.150,-0.510
1891,-0.160,-0.500
1892,-0.170,-0.515
1893,-0.175,-0.515
1894,-0.180,-0.510
1895,-0.165,-0.520
1896,-0.170,-0.560
1897,-0.185,-0.575
1898,-0.220,-0.575
1899,-0.220,-0.570
1900,-0.210,-0.545
1901,-0.205,-0.540
1902,-0.205,-0.535
1903,-0.200,-0.555
1904,-0.205,-0.545
1905,-0.185,-0.550
1906,-0.180,-0.535
1907,-0.175,-0.555
1908,-0.190,-0.565
1909,-0.200,-0.590
1910,-0.215,-0.600
1911,-0.215,-0.600
1912,-0.225,-0.570
1913,-0.220,-0.555
1914,-0.225,-0.545
1915,-0.240,-0.565
1916,-0.265,-0.565
1917,-0.250,-0.565
1918,-0.240,-0.540
1919,-0.220,-0.520
1920,-0.250,-0.520
1921,-0.290,-0.530
1922,-0.325,-0.515
1923,-0.345,-0.500
1924,-0.345,-0.495
1925,-0.370,-0.490
1926,-0.395,-0.505
1927,-0.435,-0.525
1928,-0.460,-0.515
1929,-0.465,-0.495
1930,-0.470,-0.490
1931,-0.470,-0.500
1932,-0.455,-0.505
1933,-0.465,-0.505
1934,-0.475,-0.495
1935,-0.490,-0.485
1936,-0.470,-0.460
1937,-0.490,-0.480
1938,-0.485,-0.505
1939,-0.480,-0.535
1940,-0.510,-0.530
1941,-0.490,-0.520
1942,-0.475,-0.510
1943,-0.465,-0.505
1944,-0.485,-0.505
1945,-0.500,-0.520
1946,-0.495,-0.515
1947,-0.490,-0.505
1948,-0.495,-0.485
1949,-0.495,-0.495
1950,-0.505,-0.500
1951,-0.515,-0.505
1952,-0.540,-0.495
1953,-0.540,-0.480
1954,-0.520,-0.460
1955,-0.515,-0.475
1956,-0.505,-0.505
1957,-0.495,-0.525
1958,-0.500,-0.535
1959,-0.500,-0.540
1960,-0.480,-0.515
1961,-0.490,-0.490
1962,-0.495,-0.475
1963,-0.485,-0.500
1964,-0.495,-0.490
1965,-0.495,-0.485
1966,-0.470,-0.480
1967,-0.455,-0.490
1968,-0.450,-0.510
1969,-0.425,-0.540
1970,-0.395,-0.540
1971,-0.360,-0.535
1972,-0.350,-0.525
1973,-0.365,-0.505
1974,-0.390,-0.460
1975,-0.440,-0.430
1976,-0.490,-0.410
1977,-0.515,-0.380
1978,-0.510,-0.370
1979,-0.445,-0.370
1980,-0.335,-0.400
1981,-0.210,-0.440
1982,-0.090,-0.490
1983,0.030,-0.570
1984,0.115,-0.660
1985,0.180,-0.750
1986,0.190,-0.810
1987,0.245,-0.915
1988,0.290,-1.030
1989,0.330,-1.155
1990,0.360,-1.265
1991,0.410,-1.390
1992,0.425,-1.490
1993,0.435,-1.540
1994,0.400,-1.535
1995,0.365,-1.525
1996,0.360,-1.475
1997,0.340,-1.435
1998,0.300,-1.390
1999,0.215,-1.345
2000,0.155,-1.290
2001,0.090,-1.225
2002,0.045,-1.160
2003,-0.015,-1.105
2004,-0.090,-1.070
2005,-0.185,-1.030
2006,-0.320,-1.010
2007,-0.445,-0.985
2008,-0.555,-0.930
2009,-0.645,-0.875
2010,-0.750,-0.835
2011,-0.870,-0.805
2012,-0.960,-0.780
2013,-0.985,-0.725
2014,-0.965,-0.685
2015,-0.945,-0.665
2016,-0.945,-0.655
2017,-0.985,-0.635
2018,-1.005,-0.605
2019,-0.995,-0.580
2020,-0.955,-0.535
2021,-0.890,-0.535
2022,-0.840,-0.520
2023,-0.815,-0.505
2024,-0.835,-0.505
2025,-0.850,-0.460
2026,-0.865,-0.410
2027,-0.865,-0.370
2028,-0.835,-0.365
2029,-0.785,-0.365
2030,-0.715,-0.355
2031,-0.655,-0.330
2032,-0.640,-0.325
2033,-0.645,-0.310
2034,-0.670,-0.320
2035,-0.685,-0.320
2036,-0.690,-0.320
2037,-0.665,-0.305
2038,-0.635,-0.300
2039,-0.615,-0.310
2040,-0.615,-0.315
2041,-0.615,-0.330
2042,-0.615,-0.330
2043,-0.620,-0.315
2044,-0.610,-0.295
2045,-0.600,-0.300
2046,-0.595,-0.310
2047,-0.615,-0.310
2048,-0.625,-0.315
2049,-0.635,-0.310
2050,-0.635,-0.280
2051,-0.645,-0.280
2052,-0.615,-0.285
2053,-0.620,-0.290
2054,-0.630,-0.290
2055,-0.635,-0.280
2056,-0.625,-0.285
2057,-0.600,-0.260
2058,-0.595,-0.275
2059,-0.600,-0.285
2060,-0.600,-0.290
2061,-0.600,-0.280
2062,-0.595,-0.270
2063,-0.570,-0.255
2064,-0.570,-0.265
2065,-0.575,-0.270
2066,-0.565,-0.270
2067,-0.545,-0.265
2068,-0.535,-0.250
2069,-0.525,-0.255
2070,-0.530,-0.255
2071,-0.545,-0.275
2072,-0.550,-0.270
2073,-0.540,-0.270
2074,-0.520,-0.265
2075,-0.520,-0.260
2076,-0.505,-0.275
2077,-0.495,-0.275
2078,-0.505,-0.285
2079,-0.490,-0.280
2080,-0.475,-0.270
2081,-0.440,-0.275
2082,-0.435,-0.280
2083,-0.435,-0.290
2084,-0.420,-0.305
2085,-0.400,-0.300
2086,-0.385,-0.295
2087,-0.370,-0.300
2088,-0.355,-0.305
2089,-0.350,-0.325
2090,-0.350,-0.345
2091,-0.335,-0.325
2092,-0.320,-0.325
2093,-0.310,-0.340
2094,-0.280,-0.350
2095,-0.285,-0.360
2096,-0.290,-0.365
2097,-0.275,-0.355
2098,-0.265,-0.345
2099,-0.245,-0.355
2100,-0.240,-0.360
2101,-0.245,-0.385
2102,-0.250,-0.405
2103,-0.250,-0.390
2104,-0.220,-0.390
2105,-0.210,-0.395
2106,-0.210,-0.410
2107,-0.195,-0.425
2108,-0.200,-0.430
2109,-0.185,-0.430
2110,-0.175,-0.415
2111,-0.155,-0.420
2112,-0.165,-0.440
2113,-0.165,-0.455
2114,-0.175,-0.475
2115,-0.155,-0.455
2116,-0.135,-0.470
2117,-0.120,-0.465
2118,-0.125,-0.465
2119,-0.145,-0.485
2120,-0.155,-0.495
2121,-0.150,-0.485
2122,-0.150,-0.485
2123,-0.135,-0.495
2124,-0.150,-0.510
2125,-0.160,-0.530
2126,-0.180,-0.530
2127,-0.165,-0.520
2128,-0.145,-0.525
2129,-0.150,-0.530
2130,-0.150,-0.525
2131,-0.135,-0.550
2132,-0.145,-0.555
2133,-0.145,-0.555
2134,-0.135,-0.545
2135,-0.145,-0.540
2136,-0.155,-0.540
2137,-0.170,-0.560
2138,-0.200,-0.555
2139,-0.205,-0.545
2140,-0.205,-0.530
2141,-0.195,-0.540
2142,-0.180,-0.545
2143,-0.195,-0.545
2144,-0.185,-0.545
2145,-0.160,-0.530
2146,-0.160,-0.530
2147,-0.170,-0.500
2148,-0.225,-0.510
2149,-0.270,-0.525
2150,-0.290,-0.540
2151,-0.310,-0.520
2152,-0.310,-0.505
2153,-0.335,-0.500
2154,-0.355,-0.495
2155,-0.390,-0.500
2156,-0.410,-0.505
2157,-0.420,-0.500
2158,-0.435,-0.485
2159,-0.420,-0.485
2160,-0.415,-0.490
2161,-0.440,-0.495
2162,-0.445,-0.505
2163,-0.455,-0.495
2164,-0.435,-0.495
2165,-0.430,-0.500
2166,-0.420,-0.500
2167,-0.435,-0.505
2168,-0.450,-0.525
2169,-0.455,-0.510
2170,-0.445,-0.510
2171,-0.445,-0.515
2172,-0.425,-0.520
2173,-0.435,-0.520
2174,-0.435,-0.525
2175,-0.445,-0.525
2176,-0.430,-0.515
2177,-0.420,-0.520
2178,-0.425,-0.525
2179,-0.430,-0.525
2180,-0.440,-0.530
2181,-0.435,-0.510
2182,-0.415,-0.505
2183,-0.405,-0.520
2184,-0.410,-0.530
2185,-0.415,-0.545
2186,-0.435,-0.530
2187,-0.420,-0.525
2188,-0.410,-0.515
2189,-0.420,-0.520
2190,-0.410,-0.525
2191,-0.440,-0.525
2192,-0.450,-0.540
2193,-0.440,-0.525
2194,-0.405,-0.525
2195,-0.410,-0.530
2196,-0.400,-0.530
2197,-0.410,-0.535
2198,-0.405,-0.520
2199,-0.420,-0.490
2200,-0.420,-0.450
2201,-0.430,-0.430
2202,-0.435,-0.415
2203,-0.445,-0.420
2204,-0.415,-0.430
2205,-0.325,-0.465
2206,-0.185,-0.500
2207,-0.070,-0.575
2208,0.000,-0.685
2209,0.025,-0.785
2210,0.035,-0.865
2211,0.095,-0.980
2212,0.185,-1.130
2213,0.300,-1.330
2214,0.385,-1.515
2215,0.435,-1.620
2216,0.430,-1.645
2217,0.435,-1.635
2218,0.430,-1.620
2219,0.430,-1.590
2220,0.405,-1.535
2221,0.360,-1.485
2222,0.275,-1.430
2223,0.210,-1.375
2224,0.160,-1.285
2225,0.115,-1.235
2226,0.045,-1.165
2227,-0.045,-1.125
2228,-0.170,-1.090
2229,-0.290,-1.035
2230,-0.410,-0.975
2231,-0.535,-0.930
2232,-0.670,-0.905
2233,-0.775,-0.875
2234,-0.855,-0.850
2235,-0.890,-0.805
2236,-0.915,-0.775
2237,-0.920,-0.740
2238,-0.920,-0.730
2239,-0.895,-0.705
2240,-0.905,-0.675
2241,-0.920,-0.645
2242,-0.900,-0.615
2243,-0.850,-0.585
2244,-0.800,-0.550
2245,-0.780,-0.550
2246,-0.765,-0.520
2247,-0.755,-0.500
2248,-0.720,-0.470
2249,-0.675,-0.445
2250,-0.650,-0.445
2251,-0.645,-0.435
2252,-0.630,-0.435
2253,-0.605,-0.405
2254,-0.590,-0.390
2255,-0.585,-0.395
2256,-0.575,-0.380
2257,-0.575,-0.390
2258,-0.580,-0.405
2259,-0.575,-0.400
2260,-0.560,-0.390
2261,-0.555,-0.385
2262,-0.570,-0.385
2263,-0.585,-0.395
2264,-0.600,-0.380
2265,-0.580,-0.370
2266,-0.575,-0.365
2267,-0.570,-0.365
2268,-0.570,-0.370
2269,-0.575,-0.350
2270,-0.595,-0.340
2271,-0.575,-0.340
2272,-0.560,-0.325
2273,-0.560,-0.310
2274,-0.565,-0.325
2275,-0.575,-0.340
2276,-0.585,-0.340
2277,-0.580,-0.325
2278,-0.565,-0.305
2279,-0.560,-0.305
2280,-0.555,-0.315
2281,-0.570,-0.320
2282,-0.580,-0.310
2283,-0.565,-0.315
2284,-0.555,-0.300
2285,-0.535,-0.305
2286,-0.525,-0.300
2287,-0.550,-0.310
2288,-0.535,-0.325
2289,-0.520,-0.310
2290,-0.510,-0.305
2291,-0.500,-0.295
2292,-0.485,-0.310
2293,-0.495,-0.315
2294,-0.490,-0.330
2295,-0.480,-0.310
2296,-0.465,-0.315
2297,-0.445,-0.320
2298,-0.435,-0.325
2299,-0.415,-0.345
2300,-0.415,-0.350
2301,-0.400,-0.350
2302,-0.385,-0.335
2303,-0.395,-0.340
2304,-0.375,-0.340
2305,-0.350,-0.370
2306,-0.340,-0.380
2307,-0.340,-0.360
2308,-0.305,-0.370
2309,-0.295,-0.375
2310,-0.275,-0.370
2311,-0.280,-0.395
2312,-0.275,-0.415
2313,-0.255,-0.400
2314,-0.245,-0.400
2315,-0.230,-0.400
2316,-0.225,-0.415
2317,-0.230,-0.445
2318,-0.225,-0.450
2319,-0.205,-0.450
2320,-0.200,-0.440
2321,-0.175,-0.465
2322,-0.180,-0.460
2323,-0.175,-0.470
2324,-0.155,-0.485
2325,-0.165,-0.465
2326,-0.140,-0.475
2327,-0.135,-0.465
2328,-0.110,-0.485
2329,-0.125,-0.490
2330,-0.115,-0.510
2331,-0.100,-0.490
2332,-0.080,-0.490
2333,-0.085,-0.510
2334,-0.080,-0.515
2335,-0.080,-0.515
2336,-0.100,-0.530
2337,-0.105,-0.535
2338,-0.110,-0.545
2339,-0.115,-0.540
2340,-0.120,-0.540
2341,-0.110,-0.550
2342,-0.120,-0.555
2343,-0.095,-0.560
2344,-0.085,-0.540
2345,-0.075,-0.550
2346,-0.070,-0.555
2347,-0.085,-0.565
2348,-0.110,-0.580
2349,-0.105,-0.565
2350,-0.090,-0.550
2351,-0.095,-0.555
2352,-0.100,-0.550
2353,-0.115,-0.555
2354,-0.135,-0.560
2355,-0.140,-0.555
2356,-0.145,-0.540
2357,-0.140,-0.545
2358,-0.135,-0.550
2359,-0.140,-0.555
2360,-0.155,-0.540
2361,-0.165,-0.520
2362,-0.190,-0.510
2363,-0.210,-0.505
2364,-0.245,-0.520
2365,-0.265,-0.525
2366,-0.300,-0.525
2367,-0.320,-0.510
2368,-0.350,-0.500
2369,-0.355,-0.505
2370,-0.375,-0.505
2371,-0.405,-0.520
2372,-0.405,-0.515
2373,-0.400,-0.505
2374,-0.395,-0.495
2375,-0.400,-0.505
2376,-0.400,-0.500
2377,-0.410,-0.520
2378,-0.420,-0.525
2379,-0.420,-0.505
2380,-0.405,-0.500
2381,-0.410,-0.505
2382,-0.405,-0.500
2383,-0.410,-0.515
2384,-0.430,-0.520
2385,-0.425,-0.515
2386,-0.405,-0.510
2387,-0.390,-0.520
2388,-0.400,-0.520
2389,-0.405,-0.535
2390,-0.425,-0.535
2391,-0.415,-0.525
2392,-0.390,-0.520
2393,-0.400,-0.520
2394,-0.390,-0.500
2395,-0.395,-0.515
2396,-0.400,-0.525
2397,-0.405,-0.520
2398,-0.405,-0.510
2399,-0.400,-0.515
2400,-0.395,-0.525
2401,-0.410,-0.540
2402,-0.425,-0.545
2403,-0.405,-0.540
2404,-0.390,-0.525
2405,-0.380,-0.515
2406,-0.375,-0.525
2407,-0.400,-0.535
2408,-0.405,-0.540
2409,-0.395,-0.535
2410,-0.370,-0.515
2411,-0.365,-0.520
2412,-0.360,-0.515
2413,-0.380,-0.520
2414,-0.395,-0.490
2415,-0.405,-0.470
2416,-0.405,-0.440
2417,-0.415,-0.420
2418,-0.420,-0.405
2419,-0.425,-0.405
2420,-0.375,-0.445
2421,-0.255,-0.470
2422,-0.135,-0.510
2423,-0.015,-0.590
2424,0.060,-0.700
2425,0.080,-0.790
2426,0.090,-0.880
2427,0.160,-0.970
2428,0.270,-1.110
2429,0.395,-1.310
2430,0.490,-1.480
2431,0.555,-1.600
2432,0.590,-1.645
2433,0.615,-1.650
2434,0.615,-1.635
2435,0.605,-1.610
2436,0.580,-1.560
2437,0.525,-1.515
2438,0.430,-1.450
2439,0.355,-1.375
2440,0.295,-1.305
2441,0.240,-1.240
2442,0.165,-1.170
2443,0.060,-1.135
2444,-0.095,-1.070
2445,-0.255,-1.000
2446,-0.400,-0.945
2447,-0.525,-0.900
2448,-0.650,-0.885
2449,-0.765,-0.860
2450,-0.835,-0.825
2451,-0.870,-0.785
2452,-0.880,-0.735
2453,-0.870,-0.700
2454,-0.880,-0.685
2455,-0.880,-0.670
2456,-0.890,-0.650
2457,-0.880,-0.610
2458,-0.870,-0.580
2459,-0.835,-0.555
2460,-0.795,-0.515
2461,-0.785,-0.510
2462,-0.760,-0.480
2463,-0.730,-0.445
2464,-0.705,-0.410
2465,-0.670,-0.400
2466,-0.650,-0.395
2467,-0.650,-0.380
2468,-0.635,-0.370
2469,-0.605,-0.365
2470,-0.575,-0.345
2471,-0.555,-0.330
2472,-0.550,-0.335
2473,-0.555,-0.330
2474,-0.560,-0.340
2475,-0.540,-0.325
2476,-0.540,-0.310
2477,-0.545,-0.315
2478,-0.545,-0.315
2479,-0.540,-0.320
2480,-0.550,-0.320
2481,-0.560,-0.315
2482,-0.545,-0.285
2483,-0.535,-0.295
2484,-0.530,-0.295
2485,-0.540,-0.300
2486,-0.560,-0.295
2487,-0.550,-0.290
2488,-0.545,-0.270
2489,-0.535,-0.260
2490,-0.530,-0.270
2491,-0.545,-0.275
2492,-0.555,-0.275
2493,-0.555,-0.255
2494,-0.540,-0.245
2495,-0.525,-0.240
2496,-0.515,-0.240
2497,-0.520,-0.255
2498,-0.535,-0.250
2499,-0.525,-0.225
2500,-0.500,-0.230
2501,-0.495,-0.225
2502,-0.490,-0.235
2503,-0.495,-0.240
2504,-0.495,-0.250
2505,-0.495,-0.235
2506,-0.465,-0.230
2507,-0.465,-0.220
2508,-0.450,-0.220
2509,-0.460,-0.235
2510,-0.460,-0.230
2511,-0.435,-0.220
2512,-0.415,-0.205
2513,-0.420,-0.215
2514,-0.405,-0.225
2515,-0.410,-0.230
2516,-0.410,-0.235
2517,-0.380,-0.230
2518,-0.365,-0.205
2519,-0.330,-0.215
2520,-0.325,-0.220
2521,-0.315,-0.240
2522,-0.315,-0.255
2523,-0.315,-0.250
2524,-0.285,-0.240
2525,-0.260,-0.230
2526,-0.240,-0.230
2527,-0.230,-0.235
2528,-0.235,-0.265
2529,-0.235,-0.275
2530,-0.220,-0.275
2531,-0.205,-0.255
2532,-0.185,-0.245
2533,-0.200,-0.255
2534,-0.200,-0.260
2535,-0.180,-0.300
2536,-0.160,-0.325
2537,-0.130,-0.365
2538,-0.115,-0.360
2539,-0.115,-0.360
2540,-0.135,-0.355
2541,-0.130,-0.355
2542,-0.125,-0.370
2543,-0.105,-0.380
2544,-0.105,-0.375
2545,-0.095,-0.385
2546,-0.080,-0.385
2547,-0.055,-0.390
2548,-0.010,-0.375
2549,0.010,-0.405
2550,0.010,-0.415
2551,-0.020,-0.430
2552,-0.035,-0.435
2553,0.005,-0.440
2554,0.050,-0.440
2555,0.065,-0.460
2556,0.015,-0.460
2557,-0.065,-0.465
2558,-0.150,-0.435
2559,-0.180,-0.430
2560,-0.165,-0.410
2561,-0.145,-0.410
2562,-0.115,-0.420
2563,-0.105,-0.420
2564,-0.095,-0.450
2565,-0.075,-0.420
2566,-0.065,-0.420
2567,-0.065,-0.430
2568,-0.080,-0.430
2569,-0.080,-0.440
2570,-0.070,-0.440
2571,-0.070,-0.425
2572,-0.060,-0.400
2573,-0.060,-0.415
2574,-0.060,-0.400
2575,-0.075,-0.425
2576,-0.105,-0.435
2577,-0.115,-0.400
2578,-0.115,-0.340
2579,-0.115,-0.260
2580,-0.110,-0.235
2581,-0.110,-0.285
2582,-0.135,-0.350
2583,-0.155,-0.430
2584,-0.175,-0.470
2585,-0.200,-0.500
2586,-0.220,-0.515
2587,-0.245,-0.525
2588,-0.260,-0.515
2589,-0.255,-0.490
2590,-0.260,-0.465
2591,-0.280,-0.450
2592,-0.320,-0.425
2593,-0.350,-0.430
2594,-0.365,-0.430
2595,-0.340,-0.420
2596,-0.265,-0.410
2597,-0.205,-0.435
2598,-0.185,-0.460
2599,-0.225,-0.460
2600,-0.300,-0.440
2601,-0.360,-0.425
2602,-0.405,-0.370
2603,-0.435,-0.350
2604,-0.455,-0.320
2605,-0.475,-0.305
2606,-0.475,-0.295
2607,-0.455,-0.230
2608,-0.445,-0.195
2609,-0.425,-0.175
2610,-0.400,-0.145
2611,-0.395,-0.165
2612,-0.400,-0.210
2613,-0.425,-0.290
2614,-0.430,-0.355
2615,-0.415,-0.440
2616,-0.390,-0.480
2617,-0.385,-0.485
2618,-0.410,-0.415
2619,-0.425,-0.330
2620,-0.425,-0.285
2621,-0.400,-0.335
2622,-0.375,-0.435
2623,-0.355,-0.525
2624,-0.355,-0.575
2625,-0.345,-0.570
2626,-0.330,-0.535
2627,-0.295,-0.515
2628,-0.275,-0.495
2629,-0.260,-0.490
2630,-0.285,-0.480
2631,-0.285,-0.460
2632,-0.300,-0.450
2633,-0.330,-0.440
2634,-0.350,-0.430
2635,-0.350,-0.430
2636,-0.325,-0.410
2637,-0.315,-0.385
2638,-0.330,-0.345
2639,-0.355,-0.320
2640,-0.355,-0.295
2641,-0.325,-0.305
2642,-0.235,-0.315
2643,-0.145,-0.345
2644,-0.070,-0.360
2645,-0.040,-0.410
2646,0.005,-0.475
2647,0.065,-0.550
2648,0.140,-0.590
2649,0.230,-0.595
2650,0.330,-0.625
2651,0.405,-0.705
2652,0.435,-0.820
2653,0.460,-0.970
2654,0.520,-1.130
2655,0.625,-1.255
2656,0.695,-1.270
2657,0.700,-1.215
2658,0.650,-1.125
2659,0.595,-1.095
2660,0.575,-1.185
2661,0.595,-1.275
2662,0.600,-1.260
2663,0.550,-1.145
2664,0.475,-0.935
2665,0.405,-0.865
2666,0.330,-0.955
2667,0.265,-1.150
2668,0.195,-1.320
2669,0.100,-1.385
2670,-0.045,-1.330
2671,-0.215,-1.205
2672,-0.405,-1.070
2673,-0.560,-0.940
2674,-0.690,-0.835
2675,-0.750,-0.775
2676,-0.800,-0.725
2677,-0.850,-0.685
2678,-0.920,-0.630
2679,-0.945,-0.595
2680,-0.955,-0.560
2681,-0.945,-0.535
2682,-0.915,-0.505
2683,-0.930,-0.490
2684,-0.920,-0.470
2685,-0.865,-0.425
2686,-0.810,-0.375
2687,-0.770,-0.360
2688,-0.740,-0.350
2689,-0.715,-0.340
2690,-0.680,-0.305
2691,-0.665,-0.260
2692,-0.620,-0.245
2693,-0.600,-0.225
2694,-0.590,-0.215
2695,-0.585,-0.155
2696,-0.560,-0.105
2697,-0.505,-0.070
2698,-0.480,-0.050
2699,-0.475,-0.055
2700,-0.480,-0.055
2701,-0.490,-0.085
2702,-0.455,-0.135
2703,-0.425,-0.185
2704,-0.415,-0.220
2705,-0.390,-0.225
2706,-0.355,-0.190
2707,-0.360,-0.150
2708,-0.425,-0.125
2709,-0.485,-0.090
2710,-0.525,-0.155
2711,-0.505,-0.295
2712,-0.530,-0.445
2713,-0.560,-0.495
2714,-0.620,-0.400
2715,-0.635,-0.235
2716,-0.630,-0.110
2717,-0.615,-0.085
2718,-0.615,-0.100
2719,-0.605,-0.165
2720,-0.605,-0.200
2721,-0.605,-0.190
2722,-0.610,-0.140
2723,-0.595,-0.130
2724,-0.590,-0.105
2725,-0.595,-0.110
2726,-0.590,-0.105
2727,-0.575,-0.110
2728,-0.565,-0.105
2729,-0.565,-0.090
2730,-0.525,-0.070
2731,-0.515,-0.045
2732,-0.505,-0.005
2733,-0.500,0.010
2734,-0.495,0.010
2735,-0.475,-0.040
2736,-0.450,-0.115
2737,-0.440,-0.165
2738,-0.420,-0.140
2739,-0.400,-0.035
2740,-0.335,0.110
2741,-0.280,0.135
2742,-0.250,0.015
2743,-0.270,-0.135
2744,-0.330,-0.215
2745,-0.410,-0.210
2746,-0.445,-0.170
2747,-0.420,-0.115
2748,-0.355,-0.045
2749,-0.285,-0.050
2750,-0.235,-0.115
2751,-0.200,-0.200
2752,-0.205,-0.285
2753,-0.185,-0.320
2754,-0.150,-0.315
2755,-0.145,-0.280
2756,-0.175,-0.240
2757,-0.205,-0.215
2758,-0.185,-0.190
2759,-0.155,-0.190
2760,-0.115,-0.205
2761,-0.115,-0.215
2762,-0.125,-0.210
2763,-0.120,-0.225
2764,-0.150,-0.205
2765,-0.165,-0.210
2766,-0.180,-0.195
2767,-0.195,-0.220
2768,-0.225,-0.215
2769,-0.200,-0.210
2770,-0.155,-0.200
2771,-0.055,-0.215
2772,0.050,-0.230
2773,0.075,-0.245
2774,0.070,-0.250
2775,0.015,-0.245
2776,-0.050,-0.240
2777,-0.080,-0.235
2778,-0.080,-0.255
2779,-0.060,-0.265
2780,-0.030,-0.280
2781,0.015,-0.300
2782,0.055,-0.295
2783,0.080,-0.315
2784,0.095,-0.315
2785,0.110,-0.335
2786,0.145,-0.340
2787,0.105,-0.330
2788,-0.025,-0.300
2789,-0.135,-0.270
2790,-0.175,-0.260
2791,-0.145,-0.260
2792,-0.110,-0.265
2793,-0.120,-0.265
2794,-0.170,-0.255
2795,-0.195,-0.270
2796,-0.150,-0.275
2797,-0.105,-0.295
2798,-0.060,-0.300
2799,-0.030,-0.285
2800,-0.055,-0.270
2801,-0.065,-0.260
2802,-0.080,-0.255
2803,-0.105,-0.255
2804,-0.155,-0.250
2805,-0.215,-0.245
2806,-0.280,-0.235
2807,-0.295,-0.225
2808,-0.290,-0.235
2809,-0.285,-0.245
2810,-0.305,-0.255
2811,-0.310,-0.240
2812,-0.320,-0.235
2813,-0.310,-0.235
2814,-0.300,-0.235
2815,-0.280,-0.235
2816,-0.310,-0.255
2817,-0.320,-0.250
2818,-0.300,-0.245
2819,-0.255,-0.245
2820,-0.235,-0.245
2821,-0.285,-0.255
2822,-0.365,-0.255
2823,-0.400,-0.235
2824,-0.405,-0.225
2825,-0.355,-0.220
2826,-0.370,-0.230
2827,-0.405,-0.225
2828,-0.440,-0.225
2829,-0.425,-0.215
2830,-0.400,-0.200
2831,-0.370,-0.200
2832,-0.350,-0.235
2833,-0.350,-0.245
2834,-0.355,-0.240
2835,-0.350,-0.245
2836,-0.340,-0.230
2837,-0.350,-0.240
2838,-0.350,-0.235
2839,-0.370,-0.225
2840,-0.350,-0.225
2841,-0.340,-0.210
2842,-0.335,-0.190
2843,-0.335,-0.205
2844,-0.330,-0.210
2845,-0.320,-0.215
2846,-0.325,-0.230
2847,-0.320,-0.220
2848,-0.315,-0.215
2849,-0.285,-0.205
2850,-0.280,-0.210
2851,-0.290,-0.235
2852,-0.280,-0.240
2853,-0.265,-0.225
2854,-0.240,-0.205
2855,-0.230,-0.210
2856,-0.270,-0.200
2857,-0.300,-0.200
2858,-0.345,-0.190
2859,-0.365,-0.175
2860,-0.360,-0.120
2861,-0.345,-0.105
2862,-0.340,-0.095
2863,-0.335,-0.090
2864,-0.310,-0.105
2865,-0.235,-0.110
2866,-0.110,-0.145
2867,-0.005,-0.185
2868,0.085,-0.260
2869,0.165,-0.340
2870,0.205,-0.435
2871,0.200,-0.480
2872,0.200,-0.540
2873,0.250,-0.630
2874,0.345,-0.770
2875,0.445,-0.925
2876,0.540,-1.085
2877,0.635,-1.180
2878,0.725,-1.240
2879,0.795,-1.275
2880,0.805,-1.295
2881,0.790,-1.315
2882,0.755,-1.310
2883,0.745,-1.265
2884,0.725,-1.210
2885,0.680,-1.155
2886,0.570,-1.085
2887,0.485,-1.040
2888,0.425,-0.985
2889,0.360,-0.915
2890,0.290,-0.855
2891,0.200,-0.795
2892,0.065,-0.750
2893,-0.075,-0.700
2894,-0.215,-0.670
2895,-0.325,-0.625
2896,-0.430,-0.575
2897,-0.530,-0.560
2898,-0.615,-0.525
2899,-0.695,-0.490
2900,-0.745,-0.470
2901,-0.775,-0.435
2902,-0.785,-0.400
2903,-0.800,-0.390
2904,-0.800,-0.360
2905,-0.795,-0.360
2906,-0.795,-0.345
2907,-0.800,-0.310
2908,-0.810,-0.290
2909,-0.785,-0.260
2910,-0.765,-0.240
2911,-0.725,-0.220
2912,-0.695,-0.190
2913,-0.655,-0.150
2914,-0.625,-0.130
2915,-0.605,-0.115
2916,-0.590,-0.095
2917,-0.590,-0.085
2918,-0.590,-0.090
2919,-0.560,-0.055
2920,-0.535,-0.025
2921,-0.510,-0.010
2922,-0.475,-0.010
2923,-0.475,-0.025
2924,-0.460,-0.020
2925,-0.450,0.005
2926,-0.435,0.015
2927,-0.420,0.000
2928,-0.420,0.000
2929,-0.440,-0.005
2930,-0.435,-0.005
2931,-0.425,0.005
2932,-0.420,0.020
2933,-0.435,0.010
2934,-0.425,0.020
2935,-0.435,0.025
2936,-0.440,0.025
2937,-0.450,0.020
2938,-0.435,0.035
2939,-0.430,0.050
2940,-0.440,0.040
2941,-0.445,0.045
2942,-0.460,0.040
2943,-0.450,0.055
2944,-0.440,0.070
2945,-0.430,0.070
2946,-0.425,0.060
2947,-0.440,0.070
2948,-0.450,0.075
2949,-0.440,0.085
2950,-0.425,0.100
2951,-0.425,0.085
2952,-0.415,0.085
2953,-0.425,0.090
2954,-0.440,0.090
2955,-0.425,0.085
2956,-0.420,0.100
2957,-0.410,0.100
2958,-0.405,0.100
2959,-0.415,0.090
2960,-0.410,0.095
2961,-0.405,0.115
2962,-0.385,0.130
2963,-0.360,0.115
2964,-0.355,0.110
2965,-0.365,0.105
2966,-0.365,0.090
2967,-0.340,0.105
2968,-0.320,0.100
2969,-0.305,0.115
2970,-0.305,0.115
2971,-0.295,0.090
2972,-0.290,0.100
2973,-0.265,0.110
2974,-0.235,0.115
2975,-0.225,0.090
2976,-0.220,0.100
2977,-0.225,0.090
2978,-0.240,0.090
2979,-0.215,0.080
2980,-0.190,0.085
2981,-0.160,0.070
2982,-0.140,0.070
2983,-0.135,0.055
2984,-0.135,0.035
2985,-0.120,0.055
2986,-0.095,0.065
2987,-0.080,0.070
2988,-0.075,0.045
2989,-0.075,0.040
2990,-0.075,0.035
2991,-0.055,0.025
2992,-0.030,0.030
2993,-0.030,0.010
2994,-0.030,0.015
2995,-0.015,0.000
2996,-0.015,-0.020
2997,-0.005,-0.015
2998,0.015,-0.010
2999,0.035,-0.020
3000,0.035,-0.030
3001,0.035,-0.035
3002,0.030,-0.045
3003,0.055,-0.035
3004,0.075,-0.025
3005,0.095,-0.030
3006,0.100,-0.040
3007,0.105,-0.060
3008,0.095,-0.055
3009,0.105,-0.060
3010,0.115,-0.055
3011,0.110,-0.065
3012,0.105,-0.080
3013,0.075,-0.100
3014,0.065,-0.115
3015,0.065,-0.110
3016,0.080,-0.090
3017,0.095,-0.095
3018,0.095,-0.095
3019,0.110,-0.110
3020,0.095,-0.120
3021,0.100,-0.110
3022,0.110,-0.100
3023,0.095,-0.110
3024,0.090,-0.120
3025,0.080,-0.115
3026,0.060,-0.115
3027,0.070,-0.110
3028,0.065,-0.095
3029,0.060,-0.090
3030,0.065,-0.100
3031,0.060,-0.110
3032,0.055,-0.115
3033,0.060,-0.100
3034,0.080,-0.080
3035,0.075,-0.080
3036,0.055,-0.080
3037,0.020,-0.090
3038,-0.015,-0.090
3039,-0.050,-0.075
3040,-0.065,-0.060
3041,-0.090,-0.060
3042,-0.110,-0.060
3043,-0.135,-0.080
3044,-0.175,-0.065
3045,-0.195,-0.075
3046,-0.210,-0.065
3047,-0.210,-0.055
3048,-0.210,-0.065
3049,-0.220,-0.075
3050,-0.245,-0.070
3051,-0.250,-0.065
3052,-0.235,-0.055
3053,-0.220,-0.065
3054,-0.230,-0.060
3055,-0.230,-0.075
3056,-0.240,-0.070
3057,-0.245,-0.065
3058,-0.235,-0.060
3059,-0.230,-0.065
3060,-0.235,-0.070
3061,-0.240,-0.080
3062,-0.255,-0.085
3063,-0.250,-0.075
3064,-0.230,-0.060
3065,-0.235,-0.070
3066,-0.240,-0.080
3067,-0.265,-0.095
3068,-0.255,-0.080
3069,-0.260,-0.085
3070,-0.250,-0.075
3071,-0.230,-0.080
3072,-0.235,-0.085
3073,-0.235,-0.095
3074,-0.240,-0.090
3075,-0.230,-0.085
3076,-0.225,-0.085
3077,-0.235,-0.080
3078,-0.240,-0.075
3079,-0.240,-0.080
3080,-0.240,-0.095
3081,-0.220,-0.090
3082,-0.215,-0.080
3083,-0.205,-0.085
3084,-0.210,-0.090
3085,-0.215,-0.085
3086,-0.220,-0.090
3087,-0.225,-0.070
3088,-0.210,-0.065
3089,-0.210,-0.070
3090,-0.210,-0.070
3091,-0.215,-0.060
3092,-0.235,-0.060
3093,-0.255,-0.030
3094,-0.260,-0.005
3095,-0.265,0.020
3096,-0.265,0.045
3097,-0.270,0.045
3098,-0.250,0.030
3099,-0.155,0.015
3100,-0.040,-0.010
3101,0.050,-0.060
3102,0.150,-0.140
3103,0.215,-0.220
3104,0.275,-0.315
3105,0.320,-0.395
3106,0.390,-0.455
3107,0.490,-0.585
3108,0.595,-0.755
3109,0.690,-0.925
3110,0.780,-1.060
3111,0.860,-1.165
3112,0.935,-1.210
3113,0.970,-1.240
3114,0.980,-1.260
3115,0.950,-1.270
3116,0.940,-1.265
3117,0.915,-1.215
3118,0.880,-1.155
3119,0.800,-1.095
3120,0.685,-1.035
3121,0.585,-0.985
3122,0.495,-0.930
3123,0.410,-0.865
3124,0.315,-0.785
3125,0.200,-0.730
3126,0.070,-0.665
3127,-0.100,-0.620
3128,-0.265,-0.570
3129,-0.375,-0.510
3130,-0.480,-0.465
3131,-0.590,-0.450
3132,-0.680,-0.420
3133,-0.750,-0.395
3134,-0.790,-0.355
3135,-0.825,-0.315
3136,-0.830,-0.290
3137,-0.835,-0.260
3138,-0.835,-0.245
3139,-0.830,-0.235
3140,-0.845,-0.200
3141,-0.845,-0.180
3142,-0.820,-0.145
3143,-0.775,-0.115
3144,-0.755,-0.085
3145,-0.730,-0.080
3146,-0.700,-0.065
3147,-0.670,-0.025
3148,-0.650,0.005
3149,-0.625,0.025
3150,-0.610,0.055
3151,-0.605,0.055
3152,-0.590,0.065
3153,-0.555,0.090
3154,-0.515,0.120
3155,-0.490,0.120
3156,-0.490,0.135
3157,-0.480,0.125
3158,-0.490,0.135
3159,-0.465,0.145
3160,-0.455,0.165
3161,-0.455,0.160
3162,-0.445,0.160
3163,-0.450,0.150
3164,-0.460,0.155
3165,-0.465,0.165
3166,-0.460,0.170
3167,-0.465,0.180
3168,-0.455,0.175
3169,-0.475,0.185
3170,-0.475,0.170
3171,-0.475,0.190
3172,-0.460,0.200
3173,-0.465,0.190
3174,-0.460,0.185
3175,-0.475,0.180
3176,-0.485,0.195
3177,-0.495,0.210
3178,-0.485,0.220
3179,-0.480,0.225
3180,-0.480,0.225
3181,-0.500,0.225
3182,-0.510,0.235
3183,-0.505,0.245
3184,-0.490,0.260
3185,-0.490,0.260
3186,-0.495,0.245
3187,-0.495,0.240
3188,-0.500,0.245
3189,-0.500,0.250
3190,-0.485,0.260
3191,-0.470,0.265
3192,-0.475,0.255
3193,-0.470,0.250
3194,-0.475,0.250
3195,-0.470,0.265
3196,-0.450,0.270
3197,-0.435,0.275
3198,-0.435,0.265
3199,-0.435,0.270
3200,-0.430,0.260
3201,-0.415,0.260
3202,-0.410,0.275
3203,-0.390,0.270
3204,-0.390,0.275
3205,-0.385,0.255
3206,-0.385,0.250
3207,-0.375,0.255
3208,-0.365,0.265
3209,-0.335,0.260
3210,-0.315,0.250
3211,-0.310,0.245
3212,-0.315,0.240
3213,-0.305,0.235
3214,-0.285,0.245
3215,-0.255,0.255
3216,-0.245,0.240
3217,-0.235,0.245
3218,-0.240,0.235
3219,-0.225,0.230
3220,-0.215,0.245
3221,-0.175,0.225
3222,-0.160,0.215
3223,-0.145,0.195
3224,-0.155,0.200
3225,-0.150,0.200
3226,-0.135,0.210
3227,-0.120,0.205
3228,-0.120,0.195
3229,-0.110,0.160
3230,-0.110,0.165
3231,-0.100,0.170
3232,-0.080,0.170
3233,-0.060,0.175
3234,-0.050,0.160
3235,-0.045,0.145
3236,-0.055,0.135
3237,-0.040,0.140
3238,-0.040,0.135
3239,-0.010,0.135
3240,0.015,0.125
3241,0.020,0.110
3242,0.015,0.120
3243,0.000,0.120
3244,0.010,0.135
3245,0.025,0.120
3246,0.025,0.115
3247,0.020,0.100
3248,0.015,0.095
3249,0.015,0.085
3250,0.025,0.090
3251,0.015,0.080
3252,-0.005,0.065
3253,-0.025,0.065
3254,-0.035,0.050
3255,-0.025,0.055
3256,0.000,0.080
3257,0.025,0.070
3258,0.030,0.055
3259,0.015,0.055
3260,-0.005,0.065
3261,-0.015,0.075
3262,-0.005,0.110
3263,-0.005,0.145
3264,-0.005,0.190
3265,-0.030,0.195
3266,-0.035,0.185
3267,-0.035,0.165
3268,-0.035,0.125
3269,-0.030,0.105
3270,-0.035,0.080
3271,-0.060,0.110
3272,-0.065,0.135
3273,-0.050,0.150
3274,-0.040,0.135
3275,-0.045,0.100
3276,-0.060,0.060
3277,-0.095,0.015
3278,-0.135,-0.020
3279,-0.160,-0.030
3280,-0.180,-0.025
3281,-0.200,-0.005
3282,-0.225,-0.010
3283,-0.265,0.000
3284,-0.290,0.015
3285,-0.320,0.040
3286,-0.325,0.060
3287,-0.335,0.075
3288,-0.345,0.080
3289,-0.360,0.070
3290,-0.385,0.080
3291,-0.370,0.080
3292,-0.360,0.090
3293,-0.335,0.095
3294,-0.345,0.075
3295,-0.345,0.070
3296,-0.360,0.075
3297,-0.365,0.075
3298,-0.350,0.085
3299,-0.335,0.080
3300,-0.340,0.075
3301,-0.355,0.060
3302,-0.365,0.055
3303,-0.360,0.070
3304,-0.345,0.080
3305,-0.335,0.085
3306,-0.345,0.075
3307,-0.360,0.065
3308,-0.365,0.070
3309,-0.360,0.070
3310,-0.350,0.095
3311,-0.335,0.070
3312,-0.345,0.065
3313,-0.350,0.065
3314,-0.375,0.065
3315,-0.350,0.075
3316,-0.340,0.075
3317,-0.320,0.080
3318,-0.325,0.075
3319,-0.335,0.075
3320,-0.345,0.065
3321,-0.345,0.070
3322,-0.340,0.080
3323,-0.330,0.075
3324,-0.305,0.075
3325,-0.315,0.075
3326,-0.330,0.070
3327,-0.330,0.085
3328,-0.310,0.100
3329,-0.315,0.100
3330,-0.310,0.110
3331,-0.325,0.125
3332,-0.355,0.140
3333,-0.350,0.165
3334,-0.305,0.185
3335,-0.220,0.185
3336,-0.110,0.160
3337,0.020,0.100
3338,0.120,0.050
3339,0.200,-0.010
3340,0.285,-0.085
3341,0.345,-0.165
3342,0.395,-0.220
3343,0.430,-0.295
3344,0.495,-0.365
3345,0.565,-0.470
3346,0.655,-0.585
3347,0.740,-0.725
3348,0.805,-0.855
3349,0.820,-0.960
3350,0.795,-1.000
3351,0.755,-0.980
3352,0.730,-0.940
3353,0.700,-0.890
3354,0.650,-0.850
3355,0.560,-0.815
3356,0.445,-0.765
3357,0.365,-0.705
3358,0.295,-0.665
3359,0.210,-0.610
3360,0.110,-0.545
3361,0.005,-0.515
3362,-0.150,-0.465
3363,-0.305,-0.390
3364,-0.450,-0.350
3365,-0.555,-0.315
3366,-0.660,-0.295
3367,-0.770,-0.275
3368,-0.870,-0.250
3369,-0.925,-0.195
3370,-0.950,-0.140
3371,-0.970,-0.115
3372,-0.960,-0.115
3373,-0.975,-0.100
3374,-0.975,-0.080
3375,-0.950,-0.050
3376,-0.940,-0.020
3377,-0.915,0.000
3378,-0.895,0.025
3379,-0.860,0.035
3380,-0.840,0.060
3381,-0.820,0.090
3382,-0.775,0.125
3383,-0.750,0.140
3384,-0.720,0.150
3385,-0.725,0.160
3386,-0.705,0.165
3387,-0.685,0.185
3388,-0.640,0.205
3389,-0.610,0.220
3390,-0.610,0.220
3391,-0.600,0.215
3392,-0.610,0.220
3393,-0.575,0.240
3394,-0.545,0.250
3395,-0.530,0.240
3396,-0.530,0.240
3397,-0.545,0.235
3398,-0.555,0.235
3399,-0.560,0.230
3400,-0.555,0.245
3401,-0.550,0.245
3402,-0.545,0.245
3403,-0.560,0.240
3404,-0.565,0.225
3405,-0.565,0.255
3406,-0.565,0.270
3407,-0.540,0.260
3408,-0.560,0.260
3409,-0.565,0.250
3410,-0.580,0.265
3411,-0.565,0.275
3412,-0.555,0.270
3413,-0.540,0.275
3414,-0.550,0.265
3415,-0.560,0.270
3416,-0.560,0.270
3417,-0.545,0.275
3418,-0.540,0.285
3419,-0.525,0.290
3420,-0.535,0.275
3421,-0.535,0.275
3422,-0.545,0.280
3423,-0.535,0.290
3424,-0.525,0.285
3425,-0.510,0.300
3426,-0.505,0.295
3427,-0.500,0.290
3428,-0.500,0.295
3429,-0.475,0.305
3430,-0.460,0.295
3431,-0.435,0.300
3432,-0.435,0.290
3433,-0.445,0.285
3434,-0.445,0.275
3435,-0.420,0.280
3436,-0.410,0.285
3437,-0.395,0.290
3438,-0.385,0.285
3439,-0.400,0.270
3440,-0.380,0.275
3441,-0.370,0.280
3442,-0.360,0.275
3443,-0.340,0.285
3444,-0.320,0.265
3445,-0.325,0.250
3446,-0.330,0.260
3447,-0.315,0.255
3448,-0.285,0.270
3449,-0.265,0.275
3450,-0.255,0.255
3451,-0.230,0.250
3452,-0.225,0.255
3453,-0.210,0.270
3454,-0.205,0.275
3455,-0.175,0.240
3456,-0.175,0.220
3457,-0.160,0.190
3458,-0.175,0.195
3459,-0.170,0.200
3460,-0.160,0.200
3461,-0.135,0.190
3462,-0.140,0.200
3463,-0.135,0.180
3464,-0.135,0.180
3465,-0.120,0.180
3466,-0.110,0.190
3467,-0.100,0.185
3468,-0.085,0.195
3469,-0.085,0.195
3470,-0.090,0.200
3471,-0.065,0.200
3472,-0.050,0.205
3473,-0.040,0.165
3474,-0.050,0.135
3475,-0.045,0.125
3476,-0.050,0.130
3477,-0.040,0.135
3478,-0.020,0.145
3479,-0.015,0.120
3480,-0.035,0.105
3481,-0.055,0.065
3482,-0.075,0.075
3483,-0.085,0.085
3484,-0.050,0.075
3485,-0.040,0.075
3486,-0.040,0.075
3487,-0.050,0.070
3488,-0.055,0.065
3489,-0.075,0.085
3490,-0.075,0.085
3491,-0.065,0.080
3492,-0.065,0.075
3493,-0.075,0.070
3494,-0.080,0.075
3495,-0.085,0.075
3496,-0.075,0.085
3497,-0.065,0.085
3498,-0.070,0.085
3499,-0.075,0.065
3500,-0.095,0.065
3501,-0.105,0.075
3502,-0.090,0.095
3503,-0.080,0.095
3504,-0.080,0.090
3505,-0.090,0.085
3506,-0.110,0.090
3507,-0.130,0.105
3508,-0.135,0.115
3509,-0.170,0.115
3510,-0.185,0.105
3511,-0.225,0.100
3512,-0.265,0.100
3513,-0.290,0.115
3514,-0.305,0.120
3515,-0.325,0.120
3516,-0.340,0.120
3517,-0.365,0.125
3518,-0.360,0.150
3519,-0.355,0.165
3520,-0.350,0.170
3521,-0.355,0.170
3522,-0.360,0.145
3523,-0.365,0.110
3524,-0.375,0.100
3525,-0.365,0.110
3526,-0.365,0.105
3527,-0.350,0.095
3528,-0.360,0.095
3529,-0.380,0.070
3530,-0.370,0.070
3531,-0.370,0.080
3532,-0.350,0.080
3533,-0.355,0.080
3534,-0.375,0.090
3535,-0.380,0.090
3536,-0.395,0.085
3537,-0.380,0.085
3538,-0.365,0.095
3539,-0.355,0.095
3540,-0.335,0.095
3541,-0.355,0.095
3542,-0.365,0.080
3543,-0.365,0.080
3544,-0.370,0.105
3545,-0.355,0.090
3546,-0.360,0.080
3547,-0.360,0.090
3548,-0.370,0.090
3549,-0.360,0.095
3550,-0.365,0.105
3551,-0.350,0.085
3552,-0.350,0.095
3553,-0.345,0.075
3554,-0.370,0.085
3555,-0.365,0.095
3556,-0.355,0.090
3557,-0.350,0.110
3558,-0.345,0.090
3559,-0.340,0.085
3560,-0.330,0.090
3561,-0.325,0.115
3562,-0.320,0.140
3563,-0.335,0.145
3564,-0.360,0.170
3565,-0.380,0.165
3566,-0.390,0.175
3567,-0.365,0.200
3568,-0.320,0.205
3569,-0.205,0.175
3570,-0.080,0.125
3571,0.025,0.075
3572,0.085,0.005
3573,0.145,-0.050
3574,0.170,-0.105
3575,0.195,-0.175
3576,0.240,-0.260
3577,0.295,-0.380
3578,0.355,-0.525
3579,0.430,-0.665
3580,0.510,-0.785
3581,0.585,-0.900
3582,0.595,-0.965
3583,0.590,-0.980
3584,0.550,-0.980
3585,0.545,-0.955
3586,0.540,-0.915
3587,0.530,-0.900
3588,0.505,-0.850
3589,0.435,-0.795
3590,0.360,-0.740
3591,0.300,-0.680
3592,0.235,-0.615
3593,0.175,-0.560
3594,0.110,-0.510
3595,0.000,-0.470
3596,-0.125,-0.425
3597,-0.245,-0.375
3598,-0.355,-0.320
3599,-0.465,-0.290
