0,-0.925,-0.470
1,-0.925,-0.470
2,-0.925,-0.470
3,-0.925,-0.470
4,-0.925,-0.470
5,-0.925,-0.470
6,-0.925,-0.470
7,-0.920,-0.470
8,-0.920,-0.470
9,-0.940,-0.485
10,-0.940,-0.490
11,-0.955,-0.510
12,-0.970,-0.515
13,-0.970,-0.515
14,-0.980,-0.515
15,-0.980,-0.505
16,-0.965,-0.500
17,-0.950,-0.505
18,-0.940,-0.480
19,-0.910,-0.475
20,-0.925,-0.505
21,-0.930,-0.500
22,-0.945,-0.530
23,-0.950,-0.510
24,-0.960,-0.530
25,-0.960,-0.535
26,-0.965,-0.515
27,-0.970,-0.525
28,-0.965,-0.510
29,-0.970,-0.505
30,-0.985,-0.495
31,-0.950,-0.500
32,-0.950,-0.525
33,-0.950,-0.505
34,-0.930,-0.525
35,-0.925,-0.540
36,-0.940,-0.535
37,-0.950,-0.545
38,-0.970,-0.540
39,-0.955,-0.540
40,-0.960,-0.515
41,-0.960,-0.505
42,-0.945,-0.505
43,-0.930,-0.510
44,-0.925,-0.505
45,-0.940,-0.520
46,-0.940,-0.525
47,-0.940,-0.525
48,-0.955,-0.545
49,-0.950,-0.545
50,-0.980,-0.550
51,-0.960,-0.530
52,-0.965,-0.530
53,-0.945,-0.510
54,-0.950,-0.515
55,-0.945,-0.500
56,-0.945,-0.510
57,-0.955,-0.525
58,-0.960,-0.530
59,-0.955,-0.530
60,-0.970,-0.545
61,-0.980,-0.555
62,-0.970,-0.540
63,-0.975,-0.520
64,-0.965,-0.525
65,-0.950,-0.515
66,-0.950,-0.515
67,-0.935,-0.510
68,-0.930,-0.515
69,-0.930,-0.525
70,-0.940,-0.535
71,-0.935,-0.550
72,-0.950,-0.570
73,-0.970,-0.555
74,-0.965,-0.560
75,-0.965,-0.555
76,-0.970,-0.530
77,-0.970,-0.520
78,-0.960,-0.520
79,-0.930,-0.520
80,-0.950,-0.530
81,-0.960,-0.525
82,-0.975,-0.545
83,-0.955,-0.535
84,-0.960,-0.565
85,-0.960,-0.560
86,-0.960,-0.560
87,-0.970,-0.550
88,-0.955,-0.535
89,-0.940,-0.520
90,-0.940,-0.525
91,-0.930,-0.525
92,-0.925,-0.510
93,-0.930,-0.530
94,-0.925,-0.535
95,-0.935,-0.555
96,-0.960,-0.580
97,-0.950,-0.560
98,-0.960,-0.575
99,-0.955,-0.570
100,-0.945,-0.535
101,-0.940,-0.555
102,-0.925,-0.550
103,-0.920,-0.520
104,-0.925,-0.550
105,-0.920,-0.535
106,-0.925,-0.555
107,-0.935,-0.555
108,-0.935,-0.570
109,-0.935,-0.565
110,-0.960,-0.570
111,-0.945,-0.545
112,-0.905,-0.550
113,-0.885,-0.540
114,-0.855,-0.525
115,-0.825,-0.510
116,-0.825,-0.530
117,-0.815,-0.535
118,-0.825,-0.535
119,-0.810,-0.550
120,-0.835,-0.555
121,-0.835,-0.530
122,-0.835,-0.515
123,-0.785,-0.495
124,-0.780,-0.480
125,-0.760,-0.450
126,-0.750,-0.435
127,-0.760,-0.415
128,-0.745,-0.400
129,-0.750,-0.390
130,-0.775,-0.390
131,-0.780,-0.365
132,-0.800,-0.360
133,-0.825,-0.355
134,-0.845,-0.360
135,-0.840,-0.360
136,-0.835,-0.355
137,-0.825,-0.350
138,-0.835,-0.345
139,-0.850,-0.345
140,-0.865,-0.375
141,-0.895,-0.380
142,-0.920,-0.415
143,-0.930,-0.430
144,-0.940,-0.470
145,-0.945,-0.490
146,-0.955,-0.495
147,-0.980,-0.490
148,-0.970,-0.505
149,-0.970,-0.500
150,-0.970,-0.475
151,-0.935,-0.485
152,-0.965,-0.480
153,-0.960,-0.510
154,-0.960,-0.515
155,-0.965,-0.545
156,-0.985,-0.545
157,-0.985,-0.555
158,-0.990,-0.550
159,-0.995,-0.540
160,-0.975,-0.530
161,-0.985,-0.520
162,-0.970,-0.520
163,-0.955,-0.510
164,-0.945,-0.535
165,-0.945,-0.535
166,-0.955,-0.550
167,-0.950,-0.565
168,-0.970,-0.560
169,-0.985,-0.585
170,-0.975,-0.575
171,-0.950,-0.545
172,-0.905,-0.550
173,-0.830,-0.535
174,-0.750,-0.500
175,-0.620,-0.425
176,-0.500,-0.285
177,-0.340,-0.095
178,-0.175,0.120
179,-0.035,0.370
180,0.030,0.625
181,0.010,0.890
182,-0.110,1.085
183,-0.330,1.190
184,-0.580,1.175
185,-0.865,1.005
186,-1.155,0.720
187,-1.415,0.380
188,-1.625,-0.060
189,-1.755,-0.425
190,-1.760,-0.725
191,-1.680,-0.865
192,-1.565,-0.860
193,-1.445,-0.785
194,-1.330,-0.680
195,-1.245,-0.585
196,-1.165,-0.530
197,-1.100,-0.515
198,-1.015,-0.495
199,-0.940,-0.485
200,-0.885,-0.475
201,-0.860,-0.490
202,-0.865,-0.490
203,-0.870,-0.490
204,-0.885,-0.490
205,-0.890,-0.505
206,-0.905,-0.500
207,-0.910,-0.490
208,-0.890,-0.485
209,-0.850,-0.475
210,-0.845,-0.450
211,-0.835,-0.460
212,-0.845,-0.450
213,-0.835,-0.465
214,-0.840,-0.470
215,-0.850,-0.485
216,-0.830,-0.490
217,-0.845,-0.495
218,-0.845,-0.485
219,-0.855,-0.475
220,-0.820,-0.455
221,-0.810,-0.435
222,-0.810,-0.435
223,-0.790,-0.440
224,-0.785,-0.435
225,-0.785,-0.445
226,-0.775,-0.435
227,-0.790,-0.450
228,-0.780,-0.445
229,-0.800,-0.445
230,-0.785,-0.435
231,-0.785,-0.450
232,-0.780,-0.420
233,-0.760,-0.410
234,-0.755,-0.390
235,-0.730,-0.395
236,-0.720,-0.385
237,-0.720,-0.400
238,-0.725,-0.415
239,-0.730,-0.405
240,-0.725,-0.415
241,-0.725,-0.400
242,-0.720,-0.405
243,-0.740,-0.380
244,-0.725,-0.365
245,-0.705,-0.350
246,-0.685,-0.335
247,-0.660,-0.335
248,-0.680,-0.315
249,-0.665,-0.305
250,-0.655,-0.325
251,-0.645,-0.325
252,-0.650,-0.325
253,-0.625,-0.300
254,-0.630,-0.290
255,-0.615,-0.265
256,-0.590,-0.240
257,-0.570,-0.215
258,-0.560,-0.175
259,-0.530,-0.180
260,-0.515,-0.160
261,-0.505,-0.140
262,-0.485,-0.140
263,-0.470,-0.135
264,-0.480,-0.135
265,-0.450,-0.120
266,-0.450,-0.085
267,-0.440,-0.065
268,-0.395,-0.035
269,-0.380,-0.010
270,-0.335,0.020
271,-0.305,0.055
272,-0.305,0.050
273,-0.290,0.070
274,-0.275,0.065
275,-0.275,0.090
276,-0.250,0.070
277,-0.255,0.080
278,-0.250,0.100
279,-0.240,0.125
280,-0.220,0.145
281,-0.200,0.165
282,-0.195,0.185
283,-0.175,0.185
284,-0.170,0.195
285,-0.170,0.185
286,-0.175,0.190
287,-0.180,0.175
288,-0.195,0.170
289,-0.195,0.165
290,-0.230,0.135
291,-0.235,0.125
292,-0.265,0.140
293,-0.265,0.125
294,-0.280,0.115
295,-0.300,0.075
296,-0.335,0.030
297,-0.360,0.000
298,-0.400,-0.035
299,-0.430,-0.085
300,-0.470,-0.125
301,-0.505,-0.170
302,-0.540,-0.200
303,-0.565,-0.225
304,-0.590,-0.250
305,-0.610,-0.280
306,-0.630,-0.300
307,-0.650,-0.325
308,-0.665,-0.370
309,-0.690,-0.400
310,-0.735,-0.430
311,-0.750,-0.450
312,-0.775,-0.485
313,-0.795,-0.495
314,-0.790,-0.495
315,-0.820,-0.525
316,-0.810,-0.490
317,-0.810,-0.510
318,-0.810,-0.500
319,-0.815,-0.515
320,-0.815,-0.515
321,-0.820,-0.550
322,-0.825,-0.545
323,-0.845,-0.555
324,-0.865,-0.570
325,-0.870,-0.560
326,-0.890,-0.565
327,-0.885,-0.565
328,-0.875,-0.545
329,-0.870,-0.550
330,-0.870,-0.545
331,-0.850,-0.545
332,-0.860,-0.545
333,-0.855,-0.550
334,-0.855,-0.570
335,-0.860,-0.575
336,-0.870,-0.570
337,-0.870,-0.580
338,-0.870,-0.575
339,-0.865,-0.570
340,-0.865,-0.565
341,-0.850,-0.540
342,-0.840,-0.525
343,-0.845,-0.525
344,-0.820,-0.530
345,-0.860,-0.520
346,-0.870,-0.555
347,-0.860,-0.555
348,-0.865,-0.555
349,-0.870,-0.550
350,-0.865,-0.550
351,-0.860,-0.535
352,-0.845,-0.530
353,-0.840,-0.530
354,-0.820,-0.505
355,-0.820,-0.505
356,-0.820,-0.520
357,-0.830,-0.510
358,-0.825,-0.530
359,-0.835,-0.530
360,-0.850,-0.545
361,-0.870,-0.550
362,-0.875,-0.560
363,-0.875,-0.530
364,-0.880,-0.535
365,-0.875,-0.525
366,-0.875,-0.525
367,-0.865,-0.535
368,-0.855,-0.525
369,-0.855,-0.525
370,-0.865,-0.545
371,-0.880,-0.550
372,-0.875,-0.560
373,-0.890,-0.595
374,-0.895,-0.580
375,-0.900,-0.580
376,-0.890,-0.570
377,-0.895,-0.555
378,-0.885,-0.550
379,-0.885,-0.555
380,-0.885,-0.555
381,-0.890,-0.575
382,-0.900,-0.595
383,-0.915,-0.600
384,-0.915,-0.620
385,-0.920,-0.625
386,-0.935,-0.610
387,-0.920,-0.605
388,-0.925,-0.595
389,-0.905,-0.580
390,-0.900,-0.590
391,-0.895,-0.565
392,-0.905,-0.585
393,-0.915,-0.600
394,-0.930,-0.605
395,-0.930,-0.610
396,-0.950,-0.610
397,-0.945,-0.620
398,-0.975,-0.625
399,-0.955,-0.605
400,-0.930,-0.610
401,-0.935,-0.605
402,-0.910,-0.590
403,-0.905,-0.590
404,-0.895,-0.595
405,-0.910,-0.595
406,-0.905,-0.615
407,-0.915,-0.615
408,-0.915,-0.620
409,-0.935,-0.615
410,-0.930,-0.640
411,-0.935,-0.620
412,-0.930,-0.600
413,-0.920,-0.605
414,-0.915,-0.590
415,-0.905,-0.600
416,-0.920,-0.600
417,-0.920,-0.600
418,-0.925,-0.620
419,-0.915,-0.625
420,-0.930,-0.640
421,-0.940,-0.620
422,-0.945,-0.620
423,-0.950,-0.615
424,-0.930,-0.590
425,-0.920,-0.615
426,-0.920,-0.590
427,-0.910,-0.580
428,-0.920,-0.585
429,-0.915,-0.605
430,-0.920,-0.625
431,-0.940,-0.620
432,-0.950,-0.650
433,-0.945,-0.650
434,-0.940,-0.630
435,-0.945,-0.635
436,-0.945,-0.620
437,-0.940,-0.615
438,-0.925,-0.610
439,-0.930,-0.615
440,-0.920,-0.620
441,-0.925,-0.635
442,-0.935,-0.635
443,-0.935,-0.640
444,-0.945,-0.640
445,-0.945,-0.675
446,-0.975,-0.660
447,-0.975,-0.665
448,-0.960,-0.650
449,-0.935,-0.635
450,-0.925,-0.630
451,-0.915,-0.635
452,-0.925,-0.625
453,-0.925,-0.635
454,-0.920,-0.645
455,-0.925,-0.655
456,-0.935,-0.670
457,-0.935,-0.665
458,-0.950,-0.665
459,-0.940,-0.665
460,-0.935,-0.645
461,-0.925,-0.645
462,-0.925,-0.635
463,-0.915,-0.620
464,-0.920,-0.620
465,-0.925,-0.635
466,-0.920,-0.620
467,-0.935,-0.620
468,-0.945,-0.620
469,-0.955,-0.620
470,-0.955,-0.635
471,-0.955,-0.625
472,-0.950,-0.605
473,-0.930,-0.590
474,-0.930,-0.585
475,-0.915,-0.580
476,-0.920,-0.590
477,-0.930,-0.595
478,-0.945,-0.615
479,-0.955,-0.615
480,-0.970,-0.615
481,-0.980,-0.620
482,-0.960,-0.620
483,-0.975,-0.645
484,-0.945,-0.610
485,-0.940,-0.610
486,-0.935,-0.595
487,-0.915,-0.585
488,-0.920,-0.600
489,-0.930,-0.610
490,-0.925,-0.615
491,-0.940,-0.620
492,-0.940,-0.630
493,-0.935,-0.640
494,-0.945,-0.625
495,-0.940,-0.645
496,-0.935,-0.605
497,-0.925,-0.605
498,-0.920,-0.590
499,-0.920,-0.605
500,-0.915,-0.605
501,-0.930,-0.610
502,-0.920,-0.615
503,-0.920,-0.625
504,-0.930,-0.640
505,-0.940,-0.640
506,-0.945,-0.615
507,-0.935,-0.620
508,-0.930,-0.610
509,-0.925,-0.605
510,-0.915,-0.600
511,-0.910,-0.595
512,-0.905,-0.600
513,-0.905,-0.615
514,-0.915,-0.630
515,-0.935,-0.625
516,-0.935,-0.635
517,-0.945,-0.635
518,-0.930,-0.630
519,-0.905,-0.620
520,-0.885,-0.625
521,-0.860,-0.615
522,-0.845,-0.600
523,-0.815,-0.595
524,-0.810,-0.605
525,-0.800,-0.605
526,-0.805,-0.615
527,-0.830,-0.605
528,-0.820,-0.605
529,-0.825,-0.595
530,-0.800,-0.590
531,-0.795,-0.570
532,-0.785,-0.555
533,-0.760,-0.525
534,-0.735,-0.505
535,-0.720,-0.490
536,-0.725,-0.465
537,-0.740,-0.465
538,-0.750,-0.450
539,-0.770,-0.445
540,-0.800,-0.470
541,-0.810,-0.480
542,-0.820,-0.475
543,-0.810,-0.470
544,-0.825,-0.480
545,-0.825,-0.460
546,-0.845,-0.460
547,-0.840,-0.465
548,-0.875,-0.505
549,-0.885,-0.515
550,-0.920,-0.525
551,-0.925,-0.565
552,-0.945,-0.585
553,-0.950,-0.620
554,-0.950,-0.615
555,-0.955,-0.635
556,-0.945,-0.615
557,-0.945,-0.620
558,-0.940,-0.620
559,-0.925,-0.610
560,-0.930,-0.625
561,-0.945,-0.620
562,-0.945,-0.650
563,-0.950,-0.645
564,-0.960,-0.670
565,-0.980,-0.670
566,-0.970,-0.680
567,-0.970,-0.660
568,-0.970,-0.675
569,-0.960,-0.645
570,-0.960,-0.635
571,-0.945,-0.650
572,-0.955,-0.625
573,-0.950,-0.640
574,-0.955,-0.630
575,-0.965,-0.635
576,-0.960,-0.655
577,-0.960,-0.660
578,-0.955,-0.660
579,-0.945,-0.640
580,-0.920,-0.635
581,-0.910,-0.635
582,-0.860,-0.635
583,-0.785,-0.610
584,-0.715,-0.580
585,-0.600,-0.495
586,-0.490,-0.380
587,-0.355,-0.200
588,-0.225,0.035
589,-0.100,0.280
590,-0.045,0.550
591,-0.090,0.800
592,-0.210,0.975
593,-0.430,1.060
594,-0.690,1.005
595,-0.970,0.820
596,-1.240,0.510
597,-1.490,0.105
598,-1.665,-0.310
599,-1.730,-0.660
600,-1.700,-0.895
601,-1.600,-0.975
602,-1.490,-0.940
603,-1.375,-0.840
604,-1.275,-0.745
605,-1.200,-0.690
606,-1.120,-0.620
607,-1.035,-0.615
608,-0.980,-0.610
609,-0.930,-0.605
610,-0.885,-0.595
611,-0.890,-0.590
612,-0.890,-0.585
613,-0.870,-0.590
614,-0.895,-0.600
615,-0.910,-0.605
616,-0.895,-0.595
617,-0.870,-0.575
618,-0.855,-0.580
619,-0.840,-0.565
620,-0.820,-0.585
621,-0.830,-0.560
622,-0.820,-0.585
623,-0.835,-0.575
624,-0.845,-0.590
625,-0.840,-0.585
626,-0.845,-0.570
627,-0.835,-0.590
628,-0.830,-0.565
629,-0.830,-0.570
630,-0.810,-0.540
631,-0.790,-0.545
632,-0.790,-0.540
633,-0.790,-0.555
634,-0.790,-0.565
635,-0.800,-0.565
636,-0.800,-0.565
637,-0.800,-0.570
638,-0.800,-0.555
639,-0.810,-0.535
640,-0.785,-0.535
641,-0.780,-0.520
642,-0.775,-0.520
643,-0.755,-0.495
644,-0.755,-0.515
645,-0.760,-0.505
646,-0.755,-0.500
647,-0.755,-0.535
648,-0.760,-0.530
649,-0.770,-0.535
650,-0.755,-0.490
651,-0.765,-0.495
652,-0.755,-0.470
653,-0.745,-0.470
654,-0.730,-0.475
655,-0.705,-0.460
656,-0.740,-0.455
657,-0.710,-0.455
658,-0.705,-0.450
659,-0.715,-0.470
660,-0.710,-0.470
661,-0.710,-0.450
662,-0.705,-0.460
663,-0.690,-0.440
664,-0.665,-0.415
665,-0.645,-0.395
666,-0.610,-0.375
667,-0.595,-0.365
668,-0.590,-0.360
669,-0.595,-0.365
670,-0.580,-0.365
671,-0.575,-0.355
672,-0.565,-0.345
673,-0.560,-0.330
674,-0.550,-0.315
675,-0.530,-0.295
676,-0.515,-0.255
677,-0.480,-0.225
678,-0.465,-0.205
679,-0.430,-0.180
680,-0.405,-0.165
681,-0.375,-0.155
682,-0.390,-0.140
683,-0.380,-0.130
684,-0.365,-0.120
685,-0.345,-0.105
686,-0.345,-0.085
687,-0.315,-0.075
688,-0.300,-0.035
689,-0.280,-0.025
690,-0.250,-0.005
691,-0.250,0.010
692,-0.240,0.030
693,-0.230,0.015
694,-0.225,0.015
695,-0.220,0.020
696,-0.235,0.005
697,-0.235,0.015
698,-0.230,0.010
699,-0.225,0.015
700,-0.245,0.035
701,-0.240,0.035
702,-0.250,0.055
703,-0.250,0.030
704,-0.260,0.000
705,-0.270,-0.015
706,-0.305,-0.050
707,-0.335,-0.075
708,-0.375,-0.115
709,-0.415,-0.145
710,-0.450,-0.180
711,-0.480,-0.195
712,-0.500,-0.230
713,-0.505,-0.245
714,-0.550,-0.280
715,-0.575,-0.315
716,-0.585,-0.340
717,-0.615,-0.385
718,-0.645,-0.425
719,-0.680,-0.455
720,-0.720,-0.475
721,-0.750,-0.515
722,-0.775,-0.550
723,-0.775,-0.570
724,-0.800,-0.560
725,-0.810,-0.595
726,-0.810,-0.600
727,-0.815,-0.590
728,-0.820,-0.625
729,-0.840,-0.640
730,-0.865,-0.660
731,-0.875,-0.675
732,-0.885,-0.710
733,-0.900,-0.705
734,-0.890,-0.695
735,-0.895,-0.710
736,-0.900,-0.690
737,-0.885,-0.685
738,-0.885,-0.685
739,-0.885,-0.685
740,-0.890,-0.695
741,-0.880,-0.705
742,-0.885,-0.715
743,-0.895,-0.710
744,-0.910,-0.725
745,-0.905,-0.740
746,-0.910,-0.720
747,-0.895,-0.715
748,-0.890,-0.690
749,-0.890,-0.700
750,-0.880,-0.690
751,-0.865,-0.670
752,-0.865,-0.695
753,-0.865,-0.690
754,-0.855,-0.690
755,-0.885,-0.695
756,-0.870,-0.685
757,-0.880,-0.695
758,-0.900,-0.700
759,-0.895,-0.695
760,-0.885,-0.685
761,-0.870,-0.665
762,-0.870,-0.655
763,-0.855,-0.660
764,-0.850,-0.665
765,-0.850,-0.660
766,-0.855,-0.665
767,-0.865,-0.675
768,-0.870,-0.680
769,-0.875,-0.670
770,-0.895,-0.685
771,-0.905,-0.685
772,-0.895,-0.675
773,-0.895,-0.670
774,-0.900,-0.645
775,-0.875,-0.645
776,-0.885,-0.640
777,-0.885,-0.650
778,-0.885,-0.675
779,-0.900,-0.675
780,-0.910,-0.705
781,-0.915,-0.715
782,-0.930,-0.720
783,-0.940,-0.705
784,-0.935,-0.685
785,-0.930,-0.685
786,-0.915,-0.675
787,-0.910,-0.675
788,-0.920,-0.685
789,-0.905,-0.690
790,-0.925,-0.700
791,-0.945,-0.710
792,-0.940,-0.720
793,-0.960,-0.735
794,-0.975,-0.720
795,-0.965,-0.720
796,-0.960,-0.720
797,-0.955,-0.705
798,-0.955,-0.700
799,-0.970,-0.700
800,-0.945,-0.710
801,-0.945,-0.710
802,-0.945,-0.725
803,-0.965,-0.730
804,-0.970,-0.740
805,-0.980,-0.755
806,-0.995,-0.750
807,-1.010,-0.760
808,-1.020,-0.740
809,-0.995,-0.725
810,-0.990,-0.725
811,-0.970,-0.700
812,-0.970,-0.725
813,-0.970,-0.735
814,-0.965,-0.725
815,-0.990,-0.740
816,-0.995,-0.750
817,-1.005,-0.760
818,-1.015,-0.760
819,-1.000,-0.740
820,-0.995,-0.730
821,-0.990,-0.730
822,-0.990,-0.730
823,-0.990,-0.710
824,-1.000,-0.730
825,-0.995,-0.710
826,-1.000,-0.725
827,-1.000,-0.730
828,-1.005,-0.730
829,-1.020,-0.740
830,-1.035,-0.740
831,-1.030,-0.740
832,-1.025,-0.725
833,-1.020,-0.715
834,-1.010,-0.710
835,-0.995,-0.695
836,-1.005,-0.705
837,-1.000,-0.720
838,-1.010,-0.740
839,-1.030,-0.735
840,-1.025,-0.725
841,-1.030,-0.750
842,-1.045,-0.750
843,-1.045,-0.730
844,-1.025,-0.725
845,-1.035,-0.720
846,-1.020,-0.705
847,-1.005,-0.700
848,-1.005,-0.710
849,-1.005,-0.715
850,-1.010,-0.735
851,-1.020,-0.740
852,-1.015,-0.745
853,-1.035,-0.740
854,-1.040,-0.750
855,-1.045,-0.730
856,-1.050,-0.720
857,-1.030,-0.720
858,-1.025,-0.700
859,-1.015,-0.690
860,-1.020,-0.705
861,-1.015,-0.715
862,-1.010,-0.730
863,-1.040,-0.740
864,-1.035,-0.750
865,-1.050,-0.765
866,-1.050,-0.760
867,-1.050,-0.740
868,-1.045,-0.760
869,-1.045,-0.740
870,-1.020,-0.735
871,-1.000,-0.720
872,-1.000,-0.705
873,-1.015,-0.715
874,-1.010,-0.720
875,-1.010,-0.730
876,-1.020,-0.755
877,-1.035,-0.750
878,-1.060,-0.750
879,-1.060,-0.735
880,-1.030,-0.715
881,-1.040,-0.715
882,-1.030,-0.705
883,-1.010,-0.710
884,-1.015,-0.715
885,-1.020,-0.715
886,-1.000,-0.725
887,-1.010,-0.700
888,-1.015,-0.720
889,-1.030,-0.720
890,-1.030,-0.710
891,-1.035,-0.690
892,-1.035,-0.705
893,-1.035,-0.685
894,-1.030,-0.680
895,-1.025,-0.680
896,-1.000,-0.670
897,-1.005,-0.695
898,-1.025,-0.700
899,-1.030,-0.695
900,-1.025,-0.710
901,-1.045,-0.710
902,-1.050,-0.730
903,-1.040,-0.705
904,-1.040,-0.710
905,-1.010,-0.690
906,-1.010,-0.685
907,-1.005,-0.675
908,-1.010,-0.675
909,-1.010,-0.680
910,-1.020,-0.690
911,-1.020,-0.695
912,-1.010,-0.710
913,-1.020,-0.695
914,-1.025,-0.705
915,-1.040,-0.685
916,-1.020,-0.690
917,-1.015,-0.670
918,-1.005,-0.670
919,-0.990,-0.675
920,-0.995,-0.670
921,-0.980,-0.675
922,-0.980,-0.685
923,-0.985,-0.690
924,-1.000,-0.690
925,-1.000,-0.695
926,-0.995,-0.690
927,-0.985,-0.680
928,-0.965,-0.665
929,-0.955,-0.675
930,-0.930,-0.660
931,-0.925,-0.655
932,-0.925,-0.675
933,-0.920,-0.675
934,-0.930,-0.670
935,-0.920,-0.675
936,-0.900,-0.670
937,-0.895,-0.660
938,-0.885,-0.650
939,-0.875,-0.625
940,-0.875,-0.600
941,-0.845,-0.595
942,-0.825,-0.570
943,-0.820,-0.560
944,-0.805,-0.540
945,-0.810,-0.540
946,-0.820,-0.520
947,-0.840,-0.505
948,-0.865,-0.505
949,-0.890,-0.520
950,-0.900,-0.525
951,-0.915,-0.530
952,-0.905,-0.525
953,-0.895,-0.525
954,-0.910,-0.510
955,-0.915,-0.510
956,-0.940,-0.545
957,-0.960,-0.545
958,-0.975,-0.555
959,-1.005,-0.590
960,-1.005,-0.610
961,-1.010,-0.625
962,-1.010,-0.630
963,-1.030,-0.635
964,-1.035,-0.630
965,-1.040,-0.630
966,-1.015,-0.630
967,-1.015,-0.625
968,-1.025,-0.630
969,-1.020,-0.630
970,-1.025,-0.650
971,-1.045,-0.680
972,-1.045,-0.675
973,-1.055,-0.685
974,-1.060,-0.685
975,-1.060,-0.690
976,-1.060,-0.675
977,-1.045,-0.670
978,-1.040,-0.660
979,-1.035,-0.650
980,-1.015,-0.645
981,-1.010,-0.660
982,-1.005,-0.650
983,-1.035,-0.665
984,-1.020,-0.660
985,-1.035,-0.660
986,-1.035,-0.680
987,-1.020,-0.660
988,-0.980,-0.655
989,-0.910,-0.635
990,-0.830,-0.585
991,-0.715,-0.495
992,-0.600,-0.345
993,-0.460,-0.160
994,-0.335,0.070
995,-0.215,0.305
996,-0.165,0.560
997,-0.200,0.765
998,-0.335,0.925
999,-0.815,0.945
1000,-1.095,0.795
1001,-1.375,0.540
1002,-1.605,0.170
1003,-1.795,-0.235
1004,-1.905,-0.660
1005,-1.925,-1.010
1006,-1.860,-1.195
1007,-1.760,-1.235
1008,-1.645,-1.125
1009,-1.550,-1.000
1010,-1.465,-0.890
1011,-1.395,-0.800
1012,-1.310,-0.750
1013,-1.225,-0.715
1014,-1.155,-0.680
1015,-1.075,-0.670
1016,-1.020,-0.625
1017,-0.985,-0.615
1018,-0.995,-0.605
1019,-0.990,-0.590
1020,-1.000,-0.590
1021,-1.005,-0.595
1022,-1.005,-0.585
1023,-0.990,-0.580
1024,-0.990,-0.575
1025,-0.975,-0.565
1026,-0.960,-0.565
1027,-0.940,-0.565
1028,-0.920,-0.565
1029,-0.925,-0.560
1030,-0.935,-0.560
1031,-0.935,-0.560
1032,-0.930,-0.560
1033,-0.945,-0.545
1034,-0.920,-0.535
1035,-0.930,-0.520
1036,-0.925,-0.505
1037,-0.910,-0.500
1038,-0.890,-0.495
1039,-0.880,-0.485
1040,-0.870,-0.490
1041,-0.870,-0.505
1042,-0.895,-0.500
1043,-0.890,-0.510
1044,-0.905,-0.505
1045,-0.905,-0.505
1046,-0.895,-0.500
1047,-0.895,-0.485
1048,-0.875,-0.470
1049,-0.875,-0.445
1050,-0.850,-0.445
1051,-0.855,-0.440
1052,-0.840,-0.435
1053,-0.845,-0.440
1054,-0.870,-0.440
1055,-0.865,-0.465
1056,-0.865,-0.435
1057,-0.855,-0.445
1058,-0.855,-0.430
1059,-0.835,-0.425
1060,-0.820,-0.400
1061,-0.795,-0.385
1062,-0.810,-0.370
1063,-0.790,-0.370
1064,-0.785,-0.370
1065,-0.780,-0.360
1066,-0.785,-0.350
1067,-0.795,-0.355
1068,-0.790,-0.345
1069,-0.770,-0.335
1070,-0.770,-0.330
1071,-0.745,-0.310
1072,-0.735,-0.290
1073,-0.725,-0.275
1074,-0.695,-0.230
1075,-0.660,-0.220
1076,-0.645,-0.225
1077,-0.650,-0.210
1078,-0.635,-0.190
1079,-0.620,-0.185
1080,-0.615,-0.155
1081,-0.610,-0.155
1082,-0.585,-0.115
1083,-0.565,-0.085
1084,-0.535,-0.075
1085,-0.510,-0.050
1086,-0.490,-0.035
1087,-0.470,-0.005
1088,-0.445,0.010
1089,-0.430,0.020
1090,-0.430,0.035
1091,-0.430,0.040
1092,-0.415,0.070
1093,-0.400,0.075
1094,-0.390,0.105
1095,-0.375,0.140
1096,-0.355,0.160
1097,-0.330,0.165
1098,-0.295,0.205
1099,-0.285,0.210
1100,-0.285,0.225
1101,-0.265,0.210
1102,-0.280,0.200
1103,-0.280,0.195
1104,-0.285,0.210
1105,-0.315,0.210
1106,-0.295,0.215
1107,-0.310,0.205
1108,-0.295,0.215
1109,-0.300,0.195
1110,-0.305,0.200
1111,-0.320,0.155
1112,-0.345,0.120
1113,-0.370,0.085
1114,-0.400,0.050
1115,-0.430,-0.010
1116,-0.480,-0.045
1117,-0.525,-0.090
1118,-0.560,-0.130
1119,-0.595,-0.160
1120,-0.615,-0.185
1121,-0.640,-0.230
1122,-0.655,-0.255
1123,-0.675,-0.305
1124,-0.710,-0.350
1125,-0.730,-0.380
1126,-0.760,-0.415
1127,-0.775,-0.455
1128,-0.800,-0.470
1129,-0.830,-0.500
1130,-0.845,-0.520
1131,-0.860,-0.525
1132,-0.865,-0.530
1133,-0.870,-0.530
1134,-0.860,-0.535
1135,-0.865,-0.555
1136,-0.880,-0.555
1137,-0.890,-0.580
1138,-0.910,-0.600
1139,-0.915,-0.620
1140,-0.935,-0.610
1141,-0.930,-0.630
1142,-0.930,-0.620
1143,-0.930,-0.620
1144,-0.915,-0.625
1145,-0.915,-0.615
1146,-0.905,-0.600
1147,-0.905,-0.615
1148,-0.910,-0.615
1149,-0.900,-0.625
1150,-0.935,-0.650
1151,-0.935,-0.645
1152,-0.960,-0.650
1153,-0.950,-0.660
1154,-0.940,-0.650
1155,-0.930,-0.635
1156,-0.925,-0.640
1157,-0.910,-0.620
1158,-0.895,-0.605
1159,-0.895,-0.605
1160,-0.875,-0.610
1161,-0.885,-0.615
1162,-0.895,-0.615
1163,-0.895,-0.635
1164,-0.910,-0.650
1165,-0.915,-0.625
1166,-0.910,-0.625
1167,-0.895,-0.595
1168,-0.905,-0.590
1169,-0.900,-0.580
1170,-0.885,-0.570
1171,-0.880,-0.575
1172,-0.875,-0.590
1173,-0.885,-0.585
1174,-0.890,-0.610
1175,-0.885,-0.615
1176,-0.895,-0.610
1177,-0.910,-0.595
1178,-0.900,-0.605
1179,-0.905,-0.590
1180,-0.895,-0.575
1181,-0.890,-0.580
1182,-0.890,-0.565
1183,-0.880,-0.580
1184,-0.875,-0.580
1185,-0.905,-0.600
1186,-0.900,-0.595
1187,-0.910,-0.615
1188,-0.930,-0.610
1189,-0.925,-0.620
1190,-0.935,-0.615
1191,-0.930,-0.605
1192,-0.935,-0.610
1193,-0.920,-0.595
1194,-0.905,-0.585
1195,-0.900,-0.600
1196,-0.905,-0.615
1197,-0.905,-0.635
1198,-0.935,-0.650
1199,-0.940,-0.675
1200,-0.950,-0.675
1201,-0.955,-0.670
1202,-0.955,-0.665
1203,-0.965,-0.660
1204,-0.945,-0.650
1205,-0.935,-0.645
1206,-0.930,-0.640
1207,-0.935,-0.635
1208,-0.945,-0.655
1209,-0.935,-0.660
1210,-0.945,-0.655
1211,-0.940,-0.675
1212,-0.965,-0.685
1213,-0.970,-0.695
1214,-0.965,-0.680
1215,-0.960,-0.675
1216,-0.955,-0.655
1217,-0.955,-0.650
1218,-0.955,-0.655
1219,-0.945,-0.665
1220,-0.945,-0.665
1221,-0.950,-0.680
1222,-0.970,-0.695
1223,-0.960,-0.685
1224,-0.970,-0.700
1225,-0.970,-0.700
1226,-0.975,-0.695
1227,-0.965,-0.690
1228,-0.965,-0.675
1229,-0.955,-0.665
1230,-0.955,-0.645
1231,-0.955,-0.665
1232,-0.955,-0.665
1233,-0.965,-0.670
1234,-0.965,-0.680
1235,-0.975,-0.680
1236,-0.980,-0.675
1237,-1.000,-0.685
1238,-0.985,-0.685
1239,-0.975,-0.680
1240,-0.975,-0.665
1241,-0.955,-0.655
1242,-0.950,-0.645
1243,-0.950,-0.650
1244,-0.955,-0.665
1245,-0.965,-0.665
1246,-0.970,-0.665
1247,-0.960,-0.680
1248,-0.965,-0.685
1249,-0.980,-0.680
1250,-0.975,-0.680
1251,-0.975,-0.660
1252,-0.975,-0.655
1253,-0.965,-0.645
1254,-0.950,-0.640
1255,-0.960,-0.670
1256,-0.970,-0.660
1257,-0.980,-0.660
1258,-0.945,-0.670
1259,-0.965,-0.680
1260,-0.980,-0.675
1261,-0.990,-0.685
1262,-0.985,-0.690
1263,-0.975,-0.670
1264,-0.980,-0.660
1265,-0.965,-0.650
1266,-0.960,-0.650
1267,-0.950,-0.655
1268,-0.955,-0.670
1269,-0.955,-0.680
1270,-0.955,-0.665
1271,-0.970,-0.675
1272,-0.970,-0.680
1273,-0.965,-0.680
1274,-0.980,-0.680
1275,-0.970,-0.670
1276,-0.960,-0.665
1277,-0.955,-0.655
1278,-0.950,-0.650
1279,-0.940,-0.640
1280,-0.945,-0.655
1281,-0.945,-0.670
1282,-0.970,-0.685
1283,-0.965,-0.670
1284,-0.970,-0.675
1285,-0.975,-0.675
1286,-0.975,-0.660
1287,-0.975,-0.675
1288,-0.960,-0.650
1289,-0.950,-0.645
1290,-0.950,-0.635
1291,-0.950,-0.630
1292,-0.930,-0.640
1293,-0.925,-0.655
1294,-0.935,-0.655
1295,-0.940,-0.675
1296,-0.950,-0.665
1297,-0.960,-0.670
1298,-0.960,-0.660
1299,-0.955,-0.650
1300,-0.970,-0.635
1301,-0.960,-0.625
1302,-0.950,-0.620
1303,-0.955,-0.625
1304,-0.945,-0.625
1305,-0.945,-0.635
1306,-0.940,-0.650
1307,-0.945,-0.650
1308,-0.965,-0.655
1309,-0.960,-0.645
1310,-0.960,-0.645
1311,-0.950,-0.625
1312,-0.950,-0.630
1313,-0.950,-0.635
1314,-0.930,-0.620
1315,-0.930,-0.625
1316,-0.930,-0.610
1317,-0.930,-0.630
1318,-0.940,-0.640
1319,-0.935,-0.645
1320,-0.960,-0.670
1321,-0.955,-0.675
1322,-0.950,-0.675
1323,-0.945,-0.645
1324,-0.945,-0.650
1325,-0.930,-0.630
1326,-0.925,-0.610
1327,-0.910,-0.615
1328,-0.915,-0.630
1329,-0.920,-0.615
1330,-0.920,-0.630
1331,-0.910,-0.625
1332,-0.895,-0.645
1333,-0.905,-0.635
1334,-0.875,-0.620
1335,-0.875,-0.615
1336,-0.845,-0.605
1337,-0.830,-0.615
1338,-0.835,-0.590
1339,-0.815,-0.595
1340,-0.810,-0.595
1341,-0.800,-0.570
1342,-0.805,-0.560
1343,-0.780,-0.565
1344,-0.790,-0.530
1345,-0.780,-0.540
1346,-0.775,-0.520
1347,-0.770,-0.490
1348,-0.770,-0.460
1349,-0.770,-0.445
1350,-0.785,-0.425
1351,-0.810,-0.420
1352,-0.800,-0.445
1353,-0.810,-0.445
1354,-0.815,-0.455
1355,-0.830,-0.455
1356,-0.845,-0.480
1357,-0.845,-0.475
1358,-0.875,-0.490
1359,-0.900,-0.480
1360,-0.905,-0.480
1361,-0.910,-0.500
1362,-0.925,-0.515
1363,-0.920,-0.535
1364,-0.925,-0.550
1365,-0.920,-0.585
1366,-0.915,-0.580
1367,-0.940,-0.605
1368,-0.955,-0.610
1369,-0.975,-0.615
1370,-0.970,-0.595
1371,-0.970,-0.585
1372,-0.955,-0.590
1373,-0.955,-0.590
1374,-0.955,-0.570
1375,-0.960,-0.590
1376,-0.960,-0.605
1377,-0.935,-0.605
1378,-0.950,-0.610
1379,-0.960,-0.640
1380,-0.965,-0.625
1381,-0.965,-0.620
1382,-0.970,-0.610
1383,-0.965,-0.620
1384,-0.945,-0.600
1385,-0.945,-0.600
1386,-0.935,-0.585
1387,-0.925,-0.600
1388,-0.930,-0.600
1389,-0.920,-0.605
1390,-0.925,-0.600
1391,-0.935,-0.625
1392,-0.905,-0.640
1393,-0.860,-0.635
1394,-0.795,-0.615
1395,-0.700,-0.545
1396,-0.575,-0.430
1397,-0.435,-0.265
1398,-0.265,-0.045
1399,-0.150,0.180
1400,-0.035,0.440
1401,-0.020,0.690
1402,-0.060,0.920
1403,-0.205,1.095
1404,-0.425,1.165
1405,-0.700,1.075
1406,-0.980,0.845
1407,-1.245,0.530
1408,-1.475,0.140
1409,-1.620,-0.240
1410,-1.660,-0.575
1411,-1.615,-0.810
1412,-1.500,-0.860
1413,-1.375,-0.820
1414,-1.265,-0.735
1415,-1.165,-0.665
1416,-1.105,-0.605
1417,-1.045,-0.580
1418,-0.985,-0.580
1419,-0.915,-0.580
1420,-0.905,-0.575
1421,-0.870,-0.555
1422,-0.835,-0.540
1423,-0.835,-0.540
1424,-0.840,-0.545
1425,-0.855,-0.570
1426,-0.870,-0.580
1427,-0.855,-0.590
1428,-0.845,-0.575
1429,-0.855,-0.585
1430,-0.835,-0.575
1431,-0.825,-0.580
1432,-0.820,-0.560
1433,-0.810,-0.540
1434,-0.805,-0.530
1435,-0.795,-0.530
1436,-0.795,-0.525
1437,-0.785,-0.520
1438,-0.785,-0.525
1439,-0.795,-0.525
1440,-0.805,-0.515
1441,-0.805,-0.535
1442,-0.805,-0.525
1443,-0.820,-0.505
1444,-0.790,-0.490
1445,-0.785,-0.485
1446,-0.760,-0.465
1447,-0.750,-0.465
1448,-0.740,-0.475
1449,-0.745,-0.465
1450,-0.740,-0.485
1451,-0.765,-0.480
1452,-0.765,-0.475
1453,-0.780,-0.490
1454,-0.760,-0.470
1455,-0.760,-0.460
1456,-0.745,-0.450
1457,-0.735,-0.430
1458,-0.725,-0.425
1459,-0.720,-0.415
1460,-0.705,-0.415
1461,-0.705,-0.430
1462,-0.710,-0.430
1463,-0.710,-0.430
1464,-0.705,-0.425
1465,-0.735,-0.425
1466,-0.705,-0.415
1467,-0.695,-0.395
1468,-0.685,-0.390
1469,-0.665,-0.370
1470,-0.650,-0.350
1471,-0.645,-0.350
1472,-0.630,-0.345
1473,-0.635,-0.355
1474,-0.635,-0.355
1475,-0.645,-0.350
1476,-0.640,-0.330
1477,-0.615,-0.335
1478,-0.600,-0.310
1479,-0.590,-0.295
1480,-0.580,-0.275
1481,-0.550,-0.250
1482,-0.535,-0.240
1483,-0.515,-0.225
1484,-0.510,-0.240
1485,-0.495,-0.220
1486,-0.480,-0.210
1487,-0.475,-0.200
1488,-0.465,-0.195
1489,-0.455,-0.195
1490,-0.440,-0.170
1491,-0.435,-0.135
1492,-0.410,-0.115
1493,-0.375,-0.080
1494,-0.355,-0.070
1495,-0.330,-0.050
1496,-0.305,-0.035
1497,-0.300,-0.025
1498,-0.300,-0.005
1499,-0.285,-0.005
1500,-0.295,0.010
1501,-0.260,0.035
1502,-0.250,0.045
1503,-0.250,0.060
1504,-0.215,0.100
1505,-0.195,0.115
1506,-0.200,0.125
1507,-0.175,0.135
1508,-0.175,0.145
1509,-0.150,0.125
1510,-0.160,0.125
1511,-0.165,0.120
1512,-0.170,0.135
1513,-0.185,0.130
1514,-0.185,0.145
1515,-0.195,0.130
1516,-0.190,0.125
1517,-0.210,0.125
1518,-0.215,0.110
1519,-0.230,0.075
1520,-0.255,0.065
1521,-0.300,0.015
1522,-0.330,-0.020
1523,-0.375,-0.070
1524,-0.400,-0.085
1525,-0.430,-0.125
1526,-0.445,-0.150
1527,-0.475,-0.175
1528,-0.505,-0.200
1529,-0.520,-0.235
1530,-0.550,-0.245
1531,-0.555,-0.285
1532,-0.580,-0.335
1533,-0.605,-0.350
1534,-0.650,-0.390
1535,-0.685,-0.420
1536,-0.705,-0.430
1537,-0.725,-0.460
1538,-0.740,-0.475
1539,-0.740,-0.480
1540,-0.750,-0.490
1541,-0.760,-0.495
1542,-0.765,-0.500
1543,-0.760,-0.515
1544,-0.775,-0.515
1545,-0.785,-0.560
1546,-0.790,-0.565
1547,-0.800,-0.580
1548,-0.810,-0.590
1549,-0.825,-0.595
1550,-0.830,-0.600
1551,-0.825,-0.590
1552,-0.825,-0.580
1553,-0.815,-0.590
1554,-0.805,-0.580
1555,-0.815,-0.600
1556,-0.805,-0.595
1557,-0.820,-0.610
1558,-0.820,-0.600
1559,-0.830,-0.630
1560,-0.845,-0.630
1561,-0.845,-0.635
1562,-0.845,-0.635
1563,-0.850,-0.615
1564,-0.840,-0.610
1565,-0.815,-0.615
1566,-0.800,-0.620
1567,-0.800,-0.605
1568,-0.795,-0.600
1569,-0.790,-0.620
1570,-0.795,-0.625
1571,-0.800,-0.625
1572,-0.815,-0.640
1573,-0.820,-0.620
1574,-0.855,-0.630
1575,-0.840,-0.630
1576,-0.830,-0.590
1577,-0.800,-0.590
1578,-0.785,-0.600
1579,-0.780,-0.590
1580,-0.785,-0.605
1581,-0.785,-0.620
1582,-0.790,-0.620
1583,-0.805,-0.610
1584,-0.815,-0.630
1585,-0.830,-0.635
1586,-0.840,-0.620
1587,-0.825,-0.615
1588,-0.815,-0.610
1589,-0.815,-0.600
1590,-0.810,-0.585
1591,-0.815,-0.600
1592,-0.820,-0.610
1593,-0.835,-0.605
1594,-0.820,-0.645
1595,-0.840,-0.645
1596,-0.855,-0.650
1597,-0.855,-0.660
1598,-0.865,-0.635
1599,-0.850,-0.640
1600,-0.855,-0.630
1601,-0.845,-0.625
1602,-0.840,-0.615
1603,-0.850,-0.605
1604,-0.850,-0.625
1605,-0.855,-0.640
1606,-0.875,-0.640
1607,-0.890,-0.645
1608,-0.885,-0.625
1609,-0.895,-0.650
1610,-0.895,-0.645
1611,-0.895,-0.625
1612,-0.885,-0.630
1613,-0.905,-0.635
1614,-0.880,-0.615
1615,-0.885,-0.615
1616,-0.870,-0.625
1617,-0.885,-0.640
1618,-0.880,-0.650
1619,-0.890,-0.665
1620,-0.905,-0.670
1621,-0.905,-0.680
1622,-0.910,-0.670
1623,-0.900,-0.670
1624,-0.915,-0.660
1625,-0.905,-0.655
1626,-0.905,-0.645
1627,-0.885,-0.665
1628,-0.895,-0.665
1629,-0.900,-0.670
1630,-0.900,-0.690
1631,-0.905,-0.690
1632,-0.910,-0.700
1633,-0.910,-0.710
1634,-0.910,-0.695
1635,-0.905,-0.680
1636,-0.930,-0.685
1637,-0.905,-0.675
1638,-0.900,-0.680
1639,-0.900,-0.680
1640,-0.905,-0.670
1641,-0.905,-0.690
1642,-0.935,-0.695
1643,-0.925,-0.705
1644,-0.920,-0.725
1645,-0.935,-0.730
1646,-0.940,-0.700
1647,-0.925,-0.710
1648,-0.935,-0.685
1649,-0.910,-0.700
1650,-0.910,-0.680
1651,-0.915,-0.670
1652,-0.920,-0.680
1653,-0.920,-0.685
1654,-0.920,-0.685
1655,-0.930,-0.700
1656,-0.920,-0.705
1657,-0.940,-0.705
1658,-0.945,-0.700
1659,-0.940,-0.680
1660,-0.935,-0.690
1661,-0.945,-0.685
1662,-0.935,-0.670
1663,-0.925,-0.665
1664,-0.935,-0.675
1665,-0.920,-0.690
1666,-0.935,-0.680
1667,-0.935,-0.690
1668,-0.935,-0.690
1669,-0.945,-0.715
1670,-0.940,-0.710
1671,-0.950,-0.680
1672,-0.925,-0.680
1673,-0.935,-0.675
1674,-0.925,-0.655
1675,-0.925,-0.685
1676,-0.925,-0.685
1677,-0.925,-0.690
1678,-0.945,-0.715
1679,-0.945,-0.720
1680,-0.945,-0.705
1681,-0.960,-0.715
1682,-0.955,-0.705
1683,-0.945,-0.705
1684,-0.940,-0.685
1685,-0.920,-0.685
1686,-0.915,-0.685
1687,-0.910,-0.690
1688,-0.910,-0.700
1689,-0.910,-0.700
1690,-0.930,-0.715
1691,-0.925,-0.715
1692,-0.930,-0.710
1693,-0.950,-0.700
1694,-0.955,-0.700
1695,-0.935,-0.695
1696,-0.920,-0.705
1697,-0.940,-0.670
1698,-0.925,-0.700
1699,-0.915,-0.695
1700,-0.910,-0.700
1701,-0.910,-0.700
1702,-0.925,-0.715
1703,-0.930,-0.725
1704,-0.950,-0.725
1705,-0.950,-0.730
1706,-0.960,-0.720
1707,-0.950,-0.710
1708,-0.935,-0.680
1709,-0.940,-0.685
1710,-0.930,-0.680
1711,-0.930,-0.685
1712,-0.920,-0.695
1713,-0.930,-0.695
1714,-0.925,-0.695
1715,-0.925,-0.715
1716,-0.930,-0.700
1717,-0.940,-0.695
1718,-0.940,-0.705
1719,-0.920,-0.685
1720,-0.915,-0.690
1721,-0.925,-0.675
1722,-0.910,-0.665
1723,-0.915,-0.675
1724,-0.910,-0.675
1725,-0.900,-0.670
1726,-0.910,-0.680
1727,-0.930,-0.700
1728,-0.925,-0.690
1729,-0.945,-0.695
1730,-0.950,-0.700
1731,-0.945,-0.675
1732,-0.935,-0.660
1733,-0.915,-0.665
1734,-0.905,-0.655
1735,-0.900,-0.660
1736,-0.895,-0.655
1737,-0.890,-0.675
1738,-0.895,-0.670
1739,-0.900,-0.695
1740,-0.925,-0.685
1741,-0.935,-0.680
1742,-0.925,-0.680
1743,-0.920,-0.680
1744,-0.920,-0.665
1745,-0.920,-0.670
1746,-0.915,-0.665
1747,-0.895,-0.680
1748,-0.895,-0.670
1749,-0.895,-0.670
1750,-0.900,-0.685
1751,-0.900,-0.675
1752,-0.905,-0.695
1753,-0.900,-0.695
1754,-0.885,-0.685
1755,-0.885,-0.695
1756,-0.865,-0.660
1757,-0.850,-0.650
1758,-0.830,-0.655
1759,-0.830,-0.660
1760,-0.810,-0.660
1761,-0.830,-0.665
1762,-0.820,-0.670
1763,-0.820,-0.665
1764,-0.820,-0.640
1765,-0.810,-0.655
1766,-0.795,-0.650
1767,-0.785,-0.620
1768,-0.755,-0.595
1769,-0.730,-0.570
1770,-0.730,-0.565
1771,-0.710,-0.560
1772,-0.700,-0.545
1773,-0.710,-0.520
1774,-0.745,-0.520
1775,-0.750,-0.515
1776,-0.785,-0.515
1777,-0.820,-0.530
1778,-0.815,-0.520
1779,-0.820,-0.505
1780,-0.810,-0.505
1781,-0.810,-0.515
1782,-0.820,-0.505
1783,-0.820,-0.505
1784,-0.835,-0.530
1785,-0.855,-0.545
1786,-0.895,-0.570
1787,-0.910,-0.595
1788,-0.915,-0.620
1789,-0.925,-0.640
1790,-0.925,-0.650
1791,-0.925,-0.640
1792,-0.915,-0.635
1793,-0.930,-0.645
1794,-0.920,-0.635
1795,-0.920,-0.640
1796,-0.935,-0.645
1797,-0.950,-0.655
1798,-0.965,-0.675
1799,-0.965,-0.675
1800,-0.995,-0.680
1801,-0.980,-0.690
1802,-0.985,-0.685
1803,-0.975,-0.675
1804,-0.955,-0.660
1805,-0.970,-0.665
1806,-0.940,-0.650
1807,-0.925,-0.655
1808,-0.940,-0.670
1809,-0.960,-0.670
1810,-0.950,-0.695
1811,-0.950,-0.685
1812,-0.975,-0.695
1813,-0.965,-0.685
1814,-0.960,-0.670
1815,-0.960,-0.665
1816,-0.925,-0.675
1817,-0.900,-0.675
1818,-0.860,-0.670
1819,-0.790,-0.650
1820,-0.705,-0.590
1821,-0.605,-0.500
1822,-0.495,-0.350
1823,-0.355,-0.165
1824,-0.230,0.050
1825,-0.145,0.300
1826,-0.110,0.565
1827,-0.180,0.775
1828,-0.310,0.925
1829,-0.530,0.970
1830,-0.770,0.875
1831,-1.010,0.650
1832,-1.280,0.315
1833,-1.495,-0.065
1834,-1.670,-0.455
1835,-1.710,-0.785
1836,-1.695,-0.995
1837,-1.600,-1.050
1838,-1.490,-0.990
1839,-1.380,-0.885
1840,-1.255,-0.765
1841,-1.155,-0.725
1842,-1.095,-0.675
1843,-1.015,-0.660
1844,-0.960,-0.645
1845,-0.900,-0.645
1846,-0.890,-0.640
1847,-0.875,-0.645
1848,-0.875,-0.645
1849,-0.885,-0.640
1850,-0.900,-0.655
1851,-0.915,-0.640
1852,-0.905,-0.635
1853,-0.880,-0.630
1854,-0.850,-0.625
1855,-0.840,-0.625
1856,-0.835,-0.625
1857,-0.845,-0.625
1858,-0.835,-0.625
1859,-0.825,-0.635
1860,-0.845,-0.625
1861,-0.835,-0.620
1862,-0.850,-0.615
1863,-0.840,-0.595
1864,-0.840,-0.575
1865,-0.825,-0.575
1866,-0.830,-0.560
1867,-0.815,-0.580
1868,-0.805,-0.570
1869,-0.820,-0.575
1870,-0.815,-0.600
1871,-0.820,-0.600
1872,-0.825,-0.590
1873,-0.830,-0.595
1874,-0.820,-0.585
1875,-0.805,-0.565
1876,-0.790,-0.535
1877,-0.785,-0.545
1878,-0.770,-0.520
1879,-0.775,-0.510
1880,-0.765,-0.515
1881,-0.765,-0.515
1882,-0.770,-0.535
1883,-0.765,-0.530
1884,-0.795,-0.540
1885,-0.790,-0.530
1886,-0.795,-0.545
1887,-0.795,-0.500
1888,-0.765,-0.490
1889,-0.750,-0.495
1890,-0.755,-0.465
1891,-0.730,-0.490
1892,-0.735,-0.475
1893,-0.725,-0.475
1894,-0.720,-0.465
1895,-0.725,-0.490
1896,-0.730,-0.475
1897,-0.730,-0.480
1898,-0.725,-0.460
1899,-0.735,-0.445
1900,-0.705,-0.420
1901,-0.685,-0.395
1902,-0.675,-0.370
1903,-0.650,-0.370
1904,-0.635,-0.370
1905,-0.635,-0.350
1906,-0.625,-0.360
1907,-0.625,-0.345
1908,-0.610,-0.325
1909,-0.615,-0.320
1910,-0.600,-0.305
1911,-0.575,-0.280
1912,-0.560,-0.250
1913,-0.545,-0.235
1914,-0.525,-0.200
1915,-0.485,-0.195
1916,-0.475,-0.170
1917,-0.460,-0.150
1918,-0.425,-0.150
1919,-0.425,-0.140
1920,-0.405,-0.140
1921,-0.430,-0.105
1922,-0.395,-0.090
1923,-0.375,-0.070
1924,-0.365,-0.035
1925,-0.345,-0.015
1926,-0.295,0.005
1927,-0.265,0.045
1928,-0.255,0.055
1929,-0.245,0.050
1930,-0.250,0.050
1931,-0.260,0.075
1932,-0.260,0.075
1933,-0.270,0.080
1934,-0.260,0.090
1935,-0.260,0.110
1936,-0.255,0.100
1937,-0.260,0.110
1938,-0.270,0.110
1939,-0.260,0.090
1940,-0.265,0.075
1941,-0.290,0.055
1942,-0.320,0.000
1943,-0.345,-0.030
1944,-0.390,-0.065
1945,-0.405,-0.095
1946,-0.455,-0.120
1947,-0.490,-0.165
1948,-0.510,-0.185
1949,-0.530,-0.220
1950,-0.570,-0.260
1951,-0.600,-0.310
1952,-0.620,-0.330
1953,-0.650,-0.385
1954,-0.690,-0.430
1955,-0.715,-0.465
1956,-0.755,-0.490
1957,-0.765,-0.520
1958,-0.790,-0.545
1959,-0.810,-0.565
1960,-0.815,-0.555
1961,-0.820,-0.560
1962,-0.810,-0.565
1963,-0.820,-0.550
1964,-0.840,-0.575
1965,-0.855,-0.595
1966,-0.860,-0.590
1967,-0.880,-0.610
1968,-0.885,-0.620
1969,-0.890,-0.630
1970,-0.895,-0.630
1971,-0.895,-0.630
1972,-0.895,-0.630
1973,-0.890,-0.630
1974,-0.880,-0.625
1975,-0.885,-0.630
1976,-0.885,-0.650
1977,-0.870,-0.660
1978,-0.880,-0.660
1979,-0.895,-0.670
1980,-0.900,-0.670
1981,-0.890,-0.685
1982,-0.905,-0.665
1983,-0.915,-0.670
1984,-0.915,-0.645
1985,-0.885,-0.630
1986,-0.895,-0.625
1987,-0.875,-0.630
1988,-0.900,-0.645
1989,-0.915,-0.635
1990,-0.910,-0.660
1991,-0.910,-0.685
1992,-0.905,-0.650
1993,-0.910,-0.665
1994,-0.910,-0.640
1995,-0.925,-0.645
1996,-0.910,-0.630
1997,-0.895,-0.630
1998,-0.895,-0.610
1999,-0.890,-0.620
2000,-0.880,-0.620
2001,-0.895,-0.615
2002,-0.890,-0.615
2003,-0.900,-0.615
2004,-0.905,-0.635
2005,-0.915,-0.635
2006,-0.925,-0.635
2007,-0.925,-0.625
2008,-0.910,-0.620
2009,-0.895,-0.590
2010,-0.895,-0.590
2011,-0.870,-0.585
2012,-0.885,-0.590
2013,-0.885,-0.585
2014,-0.905,-0.595
2015,-0.920,-0.620
2016,-0.930,-0.640
2017,-0.920,-0.635
2018,-0.935,-0.615
2019,-0.945,-0.635
2020,-0.935,-0.610
2021,-0.955,-0.615
2022,-0.930,-0.615
2023,-0.920,-0.590
2024,-0.930,-0.610
2025,-0.945,-0.615
2026,-0.950,-0.640
2027,-0.960,-0.650
2028,-0.980,-0.655
2029,-0.975,-0.665
2030,-0.975,-0.645
2031,-0.990,-0.650
2032,-0.970,-0.650
2033,-0.965,-0.635
2034,-0.960,-0.630
2035,-0.945,-0.640
2036,-0.955,-0.635
2037,-0.950,-0.635
2038,-0.985,-0.665
2039,-1.000,-0.680
2040,-1.015,-0.685
2041,-1.000,-0.680
2042,-1.000,-0.675
2043,-0.990,-0.670
2044,-0.995,-0.660
2045,-0.980,-0.640
2046,-0.975,-0.635
2047,-0.970,-0.645
2048,-0.960,-0.645
2049,-0.965,-0.665
2050,-0.985,-0.665
2051,-1.000,-0.690
2052,-1.005,-0.690
2053,-1.010,-0.690
2054,-1.015,-0.680
2055,-1.015,-0.680
2056,-1.010,-0.670
2057,-1.000,-0.650
2058,-0.990,-0.655
2059,-0.990,-0.645
2060,-0.980,-0.660
2061,-0.975,-0.670
2062,-0.985,-0.665
2063,-0.980,-0.680
2064,-0.995,-0.700
2065,-1.005,-0.700
2066,-1.025,-0.695
2067,-1.025,-0.705
2068,-1.005,-0.685
2069,-1.010,-0.680
2070,-0.990,-0.660
2071,-0.990,-0.655
2072,-0.980,-0.665
2073,-1.000,-0.665
2074,-1.005,-0.680
2075,-1.015,-0.695
2076,-1.030,-0.710
2077,-1.025,-0.700
2078,-1.020,-0.690
2079,-1.025,-0.700
2080,-1.010,-0.680
2081,-1.010,-0.680
2082,-0.995,-0.665
2083,-1.000,-0.660
2084,-1.020,-0.665
2085,-1.020,-0.690
2086,-1.035,-0.690
2087,-1.025,-0.695
2088,-1.030,-0.705
2089,-1.055,-0.720
2090,-1.055,-0.705
2091,-1.055,-0.705
2092,-1.035,-0.680
2093,-1.010,-0.675
2094,-1.005,-0.655
2095,-1.000,-0.640
2096,-1.010,-0.650
2097,-1.000,-0.670
2098,-1.005,-0.685
2099,-1.030,-0.675
2100,-1.025,-0.685
2101,-1.035,-0.685
2102,-1.035,-0.690
2103,-1.030,-0.675
2104,-1.025,-0.675
2105,-1.025,-0.655
2106,-1.015,-0.665
2107,-1.020,-0.675
2108,-1.020,-0.680
2109,-1.010,-0.690
2110,-1.015,-0.695
2111,-1.035,-0.695
2112,-1.045,-0.720
2113,-1.040,-0.710
2114,-1.030,-0.705
2115,-1.040,-0.700
2116,-1.040,-0.695
2117,-1.030,-0.675
2118,-1.020,-0.670
2119,-1.010,-0.670
2120,-0.995,-0.665
2121,-1.000,-0.690
2122,-1.005,-0.695
2123,-1.035,-0.715
2124,-1.060,-0.710
2125,-1.045,-0.710
2126,-1.045,-0.700
2127,-1.040,-0.695
2128,-1.025,-0.690
2129,-1.030,-0.680
2130,-1.010,-0.665
2131,-1.000,-0.680
2132,-1.005,-0.670
2133,-1.015,-0.675
2134,-1.005,-0.660
2135,-1.020,-0.680
2136,-1.025,-0.695
2137,-1.015,-0.685
2138,-1.030,-0.680
2139,-1.020,-0.675
2140,-1.025,-0.660
2141,-1.020,-0.650
2142,-1.025,-0.655
2143,-1.000,-0.650
2144,-1.010,-0.630
2145,-1.010,-0.640
2146,-0.995,-0.675
2147,-1.005,-0.660
2148,-1.010,-0.650
2149,-1.010,-0.655
2150,-1.025,-0.670
2151,-1.030,-0.650
2152,-1.015,-0.650
2153,-1.020,-0.630
2154,-1.005,-0.630
2155,-0.990,-0.635
2156,-0.995,-0.630
2157,-0.985,-0.640
2158,-1.010,-0.635
2159,-1.005,-0.660
2160,-1.005,-0.675
2161,-1.020,-0.665
2162,-1.030,-0.670
2163,-1.015,-0.650
2164,-1.005,-0.645
2165,-0.990,-0.625
2166,-0.970,-0.620
2167,-0.970,-0.610
2168,-0.965,-0.630
2169,-0.970,-0.620
2170,-0.940,-0.650
2171,-0.925,-0.645
2172,-0.925,-0.675
2173,-0.930,-0.680
2174,-0.940,-0.680
2175,-0.940,-0.665
2176,-0.935,-0.645
2177,-0.915,-0.625
2178,-0.895,-0.585
2179,-0.870,-0.585
2180,-0.860,-0.590
2181,-0.830,-0.565
2182,-0.840,-0.565
2183,-0.840,-0.560
2184,-0.845,-0.555
2185,-0.840,-0.540
2186,-0.855,-0.510
2187,-0.865,-0.500
2188,-0.870,-0.490
2189,-0.865,-0.470
2190,-0.860,-0.475
2191,-0.865,-0.480
2192,-0.875,-0.490
2193,-0.875,-0.515
2194,-0.895,-0.490
2195,-0.930,-0.530
2196,-0.960,-0.530
2197,-1.005,-0.550
2198,-1.010,-0.550
2199,-1.015,-0.575
2200,-1.040,-0.560
2201,-1.025,-0.565
2202,-1.010,-0.590
2203,-1.015,-0.605
2204,-1.005,-0.610
2205,-1.010,-0.630
2206,-1.015,-0.645
2207,-1.030,-0.645
2208,-1.040,-0.660
2209,-1.045,-0.655
2210,-1.060,-0.655
2211,-1.060,-0.660
2212,-1.065,-0.655
2213,-1.065,-0.650
2214,-1.045,-0.630
2215,-1.030,-0.635
2216,-1.030,-0.620
2217,-1.015,-0.635
2218,-1.020,-0.640
2219,-1.030,-0.660
2220,-1.030,-0.665
2221,-1.030,-0.670
2222,-1.040,-0.665
2223,-1.040,-0.660
2224,-1.035,-0.640
2225,-1.025,-0.615
2226,-1.015,-0.620
2227,-1.000,-0.600
2228,-0.985,-0.630
2229,-0.995,-0.630
2230,-0.975,-0.635
2231,-0.960,-0.650
2232,-0.885,-0.615
2233,-0.800,-0.565
2234,-0.710,-0.465
2235,-0.600,-0.300
2236,-0.445,-0.075
2237,-0.300,0.170
2238,-0.180,0.430
2239,-0.130,0.680
2240,-0.195,0.885
2241,-0.360,1.020
2242,-0.600,1.030
2243,-0.885,0.935
2244,-1.185,0.695
2245,-1.455,0.355
2246,-1.700,-0.060
2247,-1.860,-0.500
2248,-1.920,-0.885
2249,-1.875,-1.145
2250,-1.760,-1.210
2251,-1.620,-1.125
2252,-1.505,-0.995
2253,-1.415,-0.885
2254,-1.340,-0.805
2255,-1.290,-0.785
2256,-1.230,-0.760
2257,-1.165,-0.735
2258,-1.095,-0.700
2259,-1.040,-0.655
2260,-0.990,-0.630
2261,-0.960,-0.620
2262,-0.945,-0.600
2263,-0.935,-0.605
2264,-0.940,-0.605
2265,-0.940,-0.625
2266,-0.945,-0.625
2267,-0.935,-0.625
2268,-0.945,-0.635
2269,-0.930,-0.625
2270,-0.935,-0.610
2271,-0.930,-0.620
2272,-0.910,-0.585
2273,-0.890,-0.585
2274,-0.885,-0.565
2275,-0.870,-0.565
2276,-0.885,-0.575
2277,-0.875,-0.570
2278,-0.875,-0.575
2279,-0.880,-0.585
2280,-0.885,-0.580
2281,-0.880,-0.575
2282,-0.890,-0.570
2283,-0.875,-0.560
2284,-0.870,-0.550
2285,-0.855,-0.550
2286,-0.845,-0.530
2287,-0.820,-0.545
2288,-0.825,-0.525
2289,-0.815,-0.515
2290,-0.830,-0.520
2291,-0.835,-0.540
2292,-0.865,-0.535
2293,-0.860,-0.545
2294,-0.845,-0.510
2295,-0.845,-0.515
2296,-0.830,-0.510
2297,-0.815,-0.485
2298,-0.795,-0.470
2299,-0.805,-0.465
2300,-0.800,-0.460
2301,-0.790,-0.470
2302,-0.775,-0.465
2303,-0.780,-0.470
2304,-0.775,-0.465
2305,-0.775,-0.460
2306,-0.785,-0.445
2307,-0.770,-0.440
2308,-0.745,-0.420
2309,-0.740,-0.400
2310,-0.715,-0.390
2311,-0.705,-0.395
2312,-0.700,-0.390
2313,-0.700,-0.365
2314,-0.685,-0.375
2315,-0.695,-0.355
2316,-0.690,-0.360
2317,-0.665,-0.355
2318,-0.650,-0.335
2319,-0.645,-0.310
2320,-0.620,-0.275
2321,-0.605,-0.260
2322,-0.585,-0.245
2323,-0.555,-0.230
2324,-0.540,-0.205
2325,-0.520,-0.205
2326,-0.495,-0.195
2327,-0.485,-0.190
2328,-0.495,-0.190
2329,-0.475,-0.180
2330,-0.480,-0.150
2331,-0.455,-0.130
2332,-0.420,-0.090
2333,-0.400,-0.090
2334,-0.390,-0.030
2335,-0.365,-0.035
2336,-0.375,-0.015
2337,-0.355,-0.025
2338,-0.365,0.000
2339,-0.335,0.005
2340,-0.325,-0.005
2341,-0.320,0.015
2342,-0.305,0.030
2343,-0.310,0.040
2344,-0.295,0.050
2345,-0.295,0.070
2346,-0.295,0.080
2347,-0.285,0.095
2348,-0.280,0.090
2349,-0.300,0.075
2350,-0.305,0.070
2351,-0.320,0.060
2352,-0.305,0.035
2353,-0.335,0.030
2354,-0.340,0.025
2355,-0.350,0.010
2356,-0.365,0.005
2357,-0.370,-0.020
2358,-0.380,-0.055
2359,-0.390,-0.085
2360,-0.415,-0.125
2361,-0.460,-0.150
2362,-0.500,-0.195
2363,-0.550,-0.230
2364,-0.565,-0.285
2365,-0.595,-0.320
2366,-0.620,-0.350
2367,-0.655,-0.375
2368,-0.680,-0.385
2369,-0.685,-0.410
2370,-0.700,-0.445
2371,-0.725,-0.480
2372,-0.755,-0.490
2373,-0.775,-0.510
2374,-0.800,-0.565
2375,-0.825,-0.580
2376,-0.835,-0.620
2377,-0.845,-0.620
2378,-0.865,-0.645
2379,-0.860,-0.640
2380,-0.865,-0.630
2381,-0.875,-0.640
2382,-0.880,-0.645
2383,-0.865,-0.655
2384,-0.880,-0.665
2385,-0.900,-0.670
2386,-0.905,-0.700
2387,-0.915,-0.700
2388,-0.910,-0.725
2389,-0.920,-0.720
2390,-0.920,-0.725
2391,-0.915,-0.705
2392,-0.900,-0.710
2393,-0.900,-0.705
2394,-0.895,-0.695
2395,-0.890,-0.695
2396,-0.895,-0.695
2397,-0.895,-0.695
2398,-0.900,-0.720
2399,-0.900,-0.715
2400,-0.910,-0.740
2401,-0.915,-0.745
2402,-0.925,-0.745
2403,-0.910,-0.735
2404,-0.915,-0.715
2405,-0.900,-0.715
2406,-0.885,-0.705
2407,-0.865,-0.685
2408,-0.875,-0.695
2409,-0.875,-0.690
2410,-0.885,-0.705
2411,-0.900,-0.710
2412,-0.900,-0.725
2413,-0.900,-0.725
2414,-0.910,-0.700
2415,-0.925,-0.710
2416,-0.890,-0.695
2417,-0.895,-0.685
2418,-0.875,-0.685
2419,-0.885,-0.670
2420,-0.890,-0.680
2421,-0.895,-0.675
2422,-0.890,-0.695
2423,-0.900,-0.695
2424,-0.910,-0.705
2425,-0.915,-0.700
2426,-0.930,-0.705
2427,-0.905,-0.680
2428,-0.915,-0.685
2429,-0.900,-0.665
2430,-0.895,-0.660
2431,-0.890,-0.665
2432,-0.890,-0.670
2433,-0.895,-0.675
2434,-0.900,-0.680
2435,-0.930,-0.690
2436,-0.935,-0.700
2437,-0.945,-0.705
2438,-0.950,-0.700
2439,-0.965,-0.705
2440,-0.960,-0.700
2441,-0.950,-0.680
2442,-0.935,-0.670
2443,-0.905,-0.675
2444,-0.920,-0.675
2445,-0.920,-0.695
2446,-0.930,-0.710
2447,-0.950,-0.730
2448,-0.950,-0.730
2449,-0.965,-0.725
2450,-0.980,-0.735
2451,-0.965,-0.740
2452,-0.960,-0.720
2453,-0.965,-0.730
2454,-0.940,-0.720
2455,-0.940,-0.725
2456,-0.945,-0.730
2457,-0.940,-0.740
2458,-0.950,-0.750
2459,-0.970,-0.760
2460,-0.970,-0.760
2461,-0.980,-0.770
2462,-0.990,-0.770
2463,-0.980,-0.750
2464,-0.970,-0.740
2465,-0.970,-0.750
2466,-0.960,-0.730
2467,-0.950,-0.740
2468,-0.955,-0.735
2469,-0.955,-0.735
2470,-0.975,-0.755
2471,-0.990,-0.780
2472,-0.990,-0.775
2473,-0.995,-0.775
2474,-0.995,-0.770
2475,-0.990,-0.785
2476,-0.990,-0.780
2477,-0.980,-0.755
2478,-0.980,-0.760
2479,-0.980,-0.765
2480,-0.970,-0.765
2481,-0.965,-0.760
2482,-0.970,-0.770
2483,-0.980,-0.790
2484,-0.990,-0.795
2485,-0.980,-0.800
2486,-0.985,-0.785
2487,-1.000,-0.790
2488,-1.010,-0.775
2489,-0.985,-0.745
2490,-0.975,-0.765
2491,-0.970,-0.745
2492,-0.975,-0.755
2493,-0.980,-0.755
2494,-0.995,-0.770
2495,-0.990,-0.780
2496,-1.005,-0.775
2497,-0.990,-0.765
2498,-1.005,-0.750
2499,-1.010,-0.755
2500,-0.980,-0.740
2501,-0.980,-0.740
2502,-0.980,-0.700
2503,-0.965,-0.720
2504,-0.965,-0.700
2505,-0.970,-0.715
2506,-0.980,-0.735
2507,-0.980,-0.755
2508,-0.985,-0.750
2509,-0.980,-0.750
2510,-1.000,-0.740
2511,-0.990,-0.730
2512,-0.990,-0.745
2513,-0.985,-0.730
2514,-0.960,-0.705
2515,-0.945,-0.720
2516,-0.955,-0.710
2517,-0.975,-0.725
2518,-0.980,-0.740
2519,-0.975,-0.735
2520,-0.985,-0.750
2521,-0.990,-0.755
2522,-1.005,-0.740
2523,-1.010,-0.735
2524,-1.005,-0.720
2525,-0.990,-0.715
2526,-0.980,-0.715
2527,-0.970,-0.715
2528,-0.975,-0.710
2529,-0.995,-0.720
2530,-0.980,-0.735
2531,-0.980,-0.725
2532,-0.990,-0.750
2533,-0.995,-0.745
2534,-0.995,-0.730
2535,-0.990,-0.735
2536,-0.985,-0.725
2537,-0.980,-0.715
2538,-0.970,-0.710
2539,-0.965,-0.700
2540,-0.970,-0.710
2541,-0.985,-0.720
2542,-0.980,-0.720
2543,-0.990,-0.725
2544,-1.000,-0.740
2545,-1.000,-0.750
2546,-0.995,-0.725
2547,-0.995,-0.740
2548,-0.985,-0.730
2549,-0.965,-0.715
2550,-0.960,-0.715
2551,-0.945,-0.715
2552,-0.945,-0.720
2553,-0.950,-0.720
2554,-0.960,-0.720
2555,-0.965,-0.745
2556,-0.980,-0.760
2557,-0.975,-0.745
2558,-0.990,-0.740
2559,-0.980,-0.765
2560,-0.980,-0.740
2561,-0.985,-0.730
2562,-0.970,-0.725
2563,-0.980,-0.720
2564,-0.960,-0.725
2565,-0.960,-0.705
2566,-0.950,-0.725
2567,-0.975,-0.730
2568,-0.975,-0.745
2569,-0.980,-0.730
2570,-0.975,-0.720
2571,-0.985,-0.715
2572,-0.975,-0.705
2573,-0.960,-0.690
2574,-0.955,-0.690
2575,-0.955,-0.695
2576,-0.950,-0.690
2577,-0.955,-0.705
2578,-0.960,-0.720
2579,-0.965,-0.720
2580,-0.960,-0.730
2581,-0.970,-0.715
2582,-1.000,-0.715
2583,-0.985,-0.700
2584,-0.960,-0.695
2585,-0.955,-0.680
2586,-0.945,-0.680
2587,-0.940,-0.680
2588,-0.945,-0.690
2589,-0.930,-0.680
2590,-0.945,-0.705
2591,-0.965,-0.700
2592,-0.960,-0.705
2593,-0.965,-0.705
2594,-0.975,-0.700
2595,-0.955,-0.680
2596,-0.950,-0.670
2597,-0.935,-0.660
2598,-0.920,-0.650
2599,-0.900,-0.655
2600,-0.885,-0.650
2601,-0.870,-0.670
2602,-0.860,-0.675
2603,-0.860,-0.695
2604,-0.850,-0.715
2605,-0.860,-0.715
2606,-0.865,-0.695
2607,-0.870,-0.670
2608,-0.850,-0.640
2609,-0.845,-0.625
2610,-0.800,-0.595
2611,-0.780,-0.585
2612,-0.770,-0.585
2613,-0.780,-0.580
2614,-0.790,-0.580
2615,-0.780,-0.570
2616,-0.795,-0.560
2617,-0.795,-0.540
2618,-0.825,-0.535
2619,-0.840,-0.530
2620,-0.830,-0.515
2621,-0.825,-0.515
2622,-0.840,-0.505
2623,-0.835,-0.500
2624,-0.850,-0.525
2625,-0.855,-0.520
2626,-0.865,-0.540
2627,-0.890,-0.560
2628,-0.915,-0.585
2629,-0.935,-0.600
2630,-0.965,-0.620
2631,-0.965,-0.610
2632,-0.970,-0.620
2633,-0.970,-0.640
2634,-0.970,-0.630
2635,-0.950,-0.640
2636,-0.960,-0.665
2637,-0.945,-0.680
2638,-0.955,-0.675
2639,-0.965,-0.675
2640,-0.990,-0.700
2641,-1.010,-0.695
2642,-1.005,-0.695
2643,-1.010,-0.695
2644,-1.010,-0.680
2645,-1.010,-0.680
2646,-0.990,-0.665
2647,-0.980,-0.680
2648,-0.990,-0.680
2649,-0.965,-0.685
2650,-0.965,-0.700
2651,-0.975,-0.700
2652,-0.980,-0.705
2653,-0.985,-0.705
2654,-0.975,-0.710
2655,-0.965,-0.675
2656,-0.950,-0.670
2657,-0.955,-0.665
2658,-0.950,-0.645
2659,-0.930,-0.645
2660,-0.890,-0.670
2661,-0.870,-0.670
2662,-0.805,-0.640
2663,-0.725,-0.595
2664,-0.595,-0.470
2665,-0.465,-0.275
2666,-0.315,-0.025
2667,-0.165,0.265
2668,-0.090,0.560
2669,-0.090,0.825
2670,-0.205,1.020
2671,-0.400,1.135
2672,-0.645,1.050
2673,-0.925,0.835
2674,-1.200,0.500
2675,-1.455,0.130
2676,-1.645,-0.280
2677,-1.715,-0.630
2678,-1.695,-0.860
2679,-1.600,-0.950
2680,-1.475,-0.885
2681,-1.345,-0.795
2682,-1.240,-0.690
2683,-1.150,-0.640
2684,-1.075,-0.630
2685,-1.015,-0.605
2686,-0.955,-0.620
2687,-0.925,-0.625
2688,-0.910,-0.625
2689,-0.900,-0.635
2690,-0.920,-0.650
2691,-0.915,-0.620
2692,-0.910,-0.625
2693,-0.910,-0.615
2694,-0.905,-0.620
2695,-0.885,-0.615
2696,-0.875,-0.615
2697,-0.865,-0.625
2698,-0.870,-0.605
2699,-0.865,-0.635
2700,-0.880,-0.630
2701,-0.885,-0.635
2702,-0.880,-0.615
2703,-0.875,-0.610
2704,-0.865,-0.605
2705,-0.855,-0.595
2706,-0.850,-0.575
2707,-0.825,-0.545
2708,-0.835,-0.570
2709,-0.845,-0.580
2710,-0.850,-0.575
2711,-0.835,-0.575
2712,-0.840,-0.585
2713,-0.840,-0.580
2714,-0.840,-0.590
2715,-0.855,-0.565
2716,-0.830,-0.545
2717,-0.820,-0.525
2718,-0.810,-0.520
2719,-0.805,-0.525
2720,-0.810,-0.510
2721,-0.795,-0.515
2722,-0.805,-0.525
2723,-0.800,-0.545
2724,-0.790,-0.530
2725,-0.800,-0.540
2726,-0.790,-0.525
2727,-0.800,-0.505
2728,-0.775,-0.480
2729,-0.770,-0.470
2730,-0.760,-0.465
2731,-0.740,-0.465
2732,-0.740,-0.455
2733,-0.745,-0.455
2734,-0.755,-0.460
2735,-0.740,-0.460
2736,-0.735,-0.455
2737,-0.735,-0.455
2738,-0.735,-0.440
2739,-0.725,-0.420
2740,-0.690,-0.395
2741,-0.685,-0.400
2742,-0.675,-0.370
2743,-0.660,-0.360
2744,-0.635,-0.340
2745,-0.620,-0.350
2746,-0.615,-0.335
2747,-0.615,-0.325
2748,-0.610,-0.330
2749,-0.595,-0.325
2750,-0.585,-0.285
2751,-0.580,-0.275
2752,-0.545,-0.255
2753,-0.510,-0.225
2754,-0.485,-0.215
2755,-0.470,-0.195
2756,-0.465,-0.175
2757,-0.460,-0.155
2758,-0.445,-0.145
2759,-0.415,-0.140
2760,-0.405,-0.120
2761,-0.400,-0.125
2762,-0.385,-0.100
2763,-0.360,-0.075
2764,-0.350,-0.045
2765,-0.320,-0.020
2766,-0.305,0.010
2767,-0.270,0.025
2768,-0.255,0.035
2769,-0.240,0.040
2770,-0.235,0.055
2771,-0.235,0.055
2772,-0.245,0.040
2773,-0.230,0.035
2774,-0.230,0.060
2775,-0.230,0.075
2776,-0.220,0.080
2777,-0.205,0.125
2778,-0.210,0.150
2779,-0.200,0.140
2780,-0.215,0.110
2781,-0.220,0.105
2782,-0.235,0.075
2783,-0.255,0.065
2784,-0.305,0.025
2785,-0.320,0.000
2786,-0.360,-0.030
2787,-0.390,-0.045
2788,-0.405,-0.080
2789,-0.445,-0.110
2790,-0.455,-0.120
2791,-0.470,-0.165
2792,-0.500,-0.200
2793,-0.550,-0.230
2794,-0.575,-0.290
2795,-0.620,-0.330
2796,-0.675,-0.365
2797,-0.675,-0.395
2798,-0.710,-0.430
2799,-0.750,-0.445
2800,-0.760,-0.455
2801,-0.765,-0.470
2802,-0.780,-0.470
2803,-0.785,-0.495
2804,-0.800,-0.515
2805,-0.815,-0.540
2806,-0.840,-0.560
2807,-0.835,-0.580
2808,-0.865,-0.595
2809,-0.890,-0.605
2810,-0.905,-0.605
2811,-0.895,-0.600
2812,-0.885,-0.605
2813,-0.885,-0.600
2814,-0.885,-0.590
2815,-0.870,-0.605
2816,-0.885,-0.605
2817,-0.885,-0.615
2818,-0.885,-0.625
2819,-0.900,-0.625
2820,-0.910,-0.655
2821,-0.925,-0.655
2822,-0.900,-0.650
2823,-0.905,-0.650
2824,-0.900,-0.630
2825,-0.895,-0.640
2826,-0.890,-0.630
2827,-0.875,-0.615
2828,-0.875,-0.640
2829,-0.895,-0.635
2830,-0.895,-0.635
2831,-0.900,-0.635
2832,-0.910,-0.660
2833,-0.905,-0.665
2834,-0.920,-0.645
2835,-0.915,-0.655
2836,-0.900,-0.645
2837,-0.895,-0.625
2838,-0.885,-0.620
2839,-0.865,-0.615
2840,-0.875,-0.620
2841,-0.865,-0.625
2842,-0.860,-0.640
2843,-0.880,-0.640
2844,-0.875,-0.650
2845,-0.895,-0.645
2846,-0.895,-0.635
2847,-0.885,-0.650
2848,-0.890,-0.615
2849,-0.870,-0.605
2850,-0.870,-0.590
2851,-0.850,-0.600
2852,-0.860,-0.595
2853,-0.875,-0.600
2854,-0.875,-0.600
2855,-0.875,-0.625
2856,-0.905,-0.620
2857,-0.890,-0.635
2858,-0.910,-0.630
2859,-0.910,-0.630
2860,-0.910,-0.620
2861,-0.890,-0.635
2862,-0.890,-0.605
2863,-0.890,-0.600
2864,-0.885,-0.615
2865,-0.885,-0.605
2866,-0.895,-0.630
2867,-0.900,-0.635
2868,-0.930,-0.655
2869,-0.945,-0.650
2870,-0.950,-0.650
2871,-0.950,-0.640
2872,-0.945,-0.635
2873,-0.940,-0.630
2874,-0.925,-0.620
2875,-0.910,-0.610
2876,-0.905,-0.630
2877,-0.935,-0.635
2878,-0.935,-0.655
2879,-0.945,-0.650
2880,-0.965,-0.675
2881,-0.965,-0.685
2882,-0.965,-0.670
2883,-0.965,-0.650
2884,-0.955,-0.650
2885,-0.955,-0.635
2886,-0.950,-0.645
2887,-0.940,-0.640
2888,-0.930,-0.635
2889,-0.940,-0.650
2890,-0.945,-0.670
2891,-0.960,-0.680
2892,-0.955,-0.680
2893,-0.960,-0.690
2894,-0.960,-0.705
2895,-0.960,-0.670
2896,-0.970,-0.665
2897,-0.955,-0.640
2898,-0.960,-0.655
2899,-0.940,-0.645
2900,-0.940,-0.650
2901,-0.930,-0.655
2902,-0.940,-0.670
2903,-0.950,-0.685
2904,-0.975,-0.680
2905,-0.975,-0.700
2906,-0.980,-0.680
2907,-0.970,-0.665
2908,-0.960,-0.665
2909,-0.950,-0.660
2910,-0.935,-0.655
2911,-0.930,-0.630
2912,-0.925,-0.645
2913,-0.925,-0.650
2914,-0.940,-0.660
2915,-0.950,-0.670
2916,-0.945,-0.675
2917,-0.955,-0.680
2918,-0.960,-0.675
2919,-0.960,-0.650
2920,-0.950,-0.640
2921,-0.950,-0.645
2922,-0.950,-0.620
2923,-0.940,-0.635
2924,-0.945,-0.630
2925,-0.950,-0.650
2926,-0.945,-0.655
2927,-0.950,-0.675
2928,-0.955,-0.680
2929,-0.955,-0.670
2930,-0.965,-0.650
2931,-0.960,-0.665
2932,-0.965,-0.650
2933,-0.960,-0.645
2934,-0.950,-0.650
2935,-0.940,-0.625
2936,-0.940,-0.635
2937,-0.945,-0.640
2938,-0.945,-0.655
2939,-0.955,-0.675
2940,-0.960,-0.685
2941,-0.970,-0.690
2942,-0.975,-0.700
2943,-0.955,-0.680
2944,-0.955,-0.665
2945,-0.950,-0.665
2946,-0.945,-0.650
2947,-0.940,-0.655
2948,-0.940,-0.650
2949,-0.940,-0.655
2950,-0.940,-0.680
2951,-0.935,-0.665
2952,-0.970,-0.675
2953,-0.960,-0.680
2954,-0.960,-0.680
2955,-0.960,-0.650
2956,-0.965,-0.650
2957,-0.960,-0.640
2958,-0.935,-0.650
2959,-0.935,-0.630
2960,-0.935,-0.630
2961,-0.930,-0.650
2962,-0.925,-0.655
2963,-0.935,-0.675
2964,-0.940,-0.660
2965,-0.960,-0.675
2966,-0.970,-0.670
2967,-0.970,-0.660
2968,-0.940,-0.655
2969,-0.940,-0.655
2970,-0.935,-0.645
2971,-0.920,-0.645
2972,-0.915,-0.640
2973,-0.920,-0.635
2974,-0.930,-0.650
2975,-0.945,-0.670
2976,-0.955,-0.670
2977,-0.930,-0.675
2978,-0.945,-0.670
2979,-0.955,-0.655
2980,-0.940,-0.645
2981,-0.935,-0.640
2982,-0.920,-0.640
2983,-0.905,-0.635
2984,-0.925,-0.615
2985,-0.940,-0.625
2986,-0.925,-0.625
2987,-0.930,-0.645
2988,-0.940,-0.655
2989,-0.940,-0.660
2990,-0.960,-0.645
2991,-0.965,-0.640
2992,-0.950,-0.645
2993,-0.925,-0.625
2994,-0.930,-0.620
2995,-0.915,-0.630
2996,-0.920,-0.635
2997,-0.930,-0.635
2998,-0.925,-0.645
2999,-0.945,-0.660
3000,-0.935,-0.645
3001,-0.935,-0.640
3002,-0.950,-0.650
3003,-0.950,-0.640
3004,-0.945,-0.620
3005,-0.935,-0.625
3006,-0.910,-0.615
3007,-0.910,-0.610
3008,-0.915,-0.625
3009,-0.920,-0.625
3010,-0.915,-0.630
3011,-0.930,-0.640
3012,-0.925,-0.650
3013,-0.935,-0.645
3014,-0.935,-0.630
3015,-0.945,-0.625
3016,-0.940,-0.625
3017,-0.925,-0.610
3018,-0.920,-0.620
3019,-0.905,-0.605
3020,-0.910,-0.600
3021,-0.930,-0.610
3022,-0.910,-0.610
3023,-0.920,-0.625
3024,-0.935,-0.645
3025,-0.925,-0.650
3026,-0.910,-0.625
3027,-0.905,-0.620
3028,-0.880,-0.625
3029,-0.865,-0.620
3030,-0.835,-0.620
3031,-0.820,-0.605
3032,-0.820,-0.610
3033,-0.810,-0.600
3034,-0.825,-0.595
3035,-0.820,-0.590
3036,-0.815,-0.590
3037,-0.810,-0.585
3038,-0.785,-0.565
3039,-0.765,-0.540
3040,-0.760,-0.530
3041,-0.755,-0.515
3042,-0.755,-0.480
3043,-0.755,-0.455
3044,-0.740,-0.440
3045,-0.755,-0.440
3046,-0.770,-0.435
3047,-0.790,-0.460
3048,-0.805,-0.470
3049,-0.830,-0.470
3050,-0.845,-0.470
3051,-0.840,-0.485
3052,-0.850,-0.455
3053,-0.865,-0.455
3054,-0.870,-0.460
3055,-0.895,-0.450
3056,-0.900,-0.490
3057,-0.895,-0.520
3058,-0.915,-0.540
3059,-0.925,-0.565
3060,-0.935,-0.575
3061,-0.960,-0.600
3062,-0.965,-0.610
3063,-0.950,-0.595
3064,-0.955,-0.590
3065,-0.955,-0.590
3066,-0.940,-0.580
3067,-0.960,-0.590
3068,-0.970,-0.600
3069,-0.970,-0.605
3070,-0.955,-0.615
3071,-0.970,-0.620
3072,-0.975,-0.635
3073,-0.980,-0.645
3074,-0.985,-0.645
3075,-0.990,-0.640
3076,-0.975,-0.635
3077,-0.965,-0.625
3078,-0.965,-0.615
3079,-0.945,-0.625
3080,-0.925,-0.630
3081,-0.920,-0.620
3082,-0.925,-0.645
3083,-0.925,-0.650
3084,-0.945,-0.635
3085,-0.955,-0.635
3086,-0.940,-0.630
3087,-0.930,-0.620
3088,-0.890,-0.605
3089,-0.810,-0.570
3090,-0.735,-0.510
3091,-0.630,-0.410
3092,-0.500,-0.250
3093,-0.355,-0.045
3094,-0.235,0.200
3095,-0.130,0.460
3096,-0.120,0.705
3097,-0.205,0.885
3098,-0.385,1.000
3099,-0.640,0.985
3100,-0.925,0.815
3101,-1.205,0.540
3102,-1.480,0.155
3103,-1.665,-0.275
3104,-1.760,-0.670
3105,-1.750,-0.960
3106,-1.670,-1.065
3107,-1.545,-1.040
3108,-1.430,-0.935
3109,-1.320,-0.825
3110,-1.230,-0.745
3111,-1.130,-0.685
3112,-1.065,-0.635
3113,-0.985,-0.605
3114,-0.940,-0.575
3115,-0.905,-0.565
3116,-0.895,-0.560
3117,-0.895,-0.555
3118,-0.905,-0.555
3119,-0.915,-0.575
3120,-0.920,-0.575
3121,-0.925,-0.590
3122,-0.910,-0.580
3123,-0.905,-0.585
3124,-0.880,-0.560
3125,-0.865,-0.530
3126,-0.855,-0.525
3127,-0.835,-0.505
3128,-0.825,-0.525
3129,-0.845,-0.525
3130,-0.830,-0.535
3131,-0.845,-0.525
3132,-0.830,-0.540
3133,-0.840,-0.530
3134,-0.830,-0.515
3135,-0.840,-0.535
3136,-0.830,-0.505
3137,-0.820,-0.505
3138,-0.820,-0.485
3139,-0.820,-0.485
3140,-0.800,-0.480
3141,-0.800,-0.485
3142,-0.800,-0.500
3143,-0.790,-0.505
3144,-0.805,-0.505
3145,-0.800,-0.485
3146,-0.815,-0.485
3147,-0.800,-0.480
3148,-0.800,-0.460
3149,-0.795,-0.460
3150,-0.780,-0.455
3151,-0.770,-0.435
3152,-0.765,-0.445
3153,-0.770,-0.440
3154,-0.770,-0.440
3155,-0.775,-0.430
3156,-0.775,-0.450
3157,-0.770,-0.460
3158,-0.775,-0.430
3159,-0.765,-0.420
3160,-0.760,-0.400
3161,-0.735,-0.405
3162,-0.715,-0.385
3163,-0.710,-0.365
3164,-0.675,-0.335
3165,-0.680,-0.355
3166,-0.680,-0.340
3167,-0.675,-0.345
3168,-0.680,-0.355
3169,-0.670,-0.340
3170,-0.670,-0.330
3171,-0.645,-0.310
3172,-0.630,-0.285
3173,-0.610,-0.255
3174,-0.575,-0.240
3175,-0.560,-0.200
3176,-0.555,-0.190
3177,-0.525,-0.175
3178,-0.510,-0.175
3179,-0.510,-0.155
3180,-0.500,-0.155
3181,-0.490,-0.145
3182,-0.465,-0.110
3183,-0.445,-0.090
3184,-0.430,-0.055
3185,-0.400,-0.030
3186,-0.380,0.005
3187,-0.355,0.025
3188,-0.335,0.050
3189,-0.315,0.060
3190,-0.310,0.070
3191,-0.295,0.080
3192,-0.290,0.085
3193,-0.290,0.115
3194,-0.285,0.125
3195,-0.275,0.155
3196,-0.235,0.160
3197,-0.235,0.180
3198,-0.220,0.205
3199,-0.195,0.200
3200,-0.180,0.195
3201,-0.170,0.200
3202,-0.185,0.200
3203,-0.180,0.190
3204,-0.200,0.195
3205,-0.195,0.175
3206,-0.230,0.165
3207,-0.240,0.190
3208,-0.235,0.170
3209,-0.260,0.160
3210,-0.270,0.160
3211,-0.280,0.135
3212,-0.305,0.105
3213,-0.320,0.070
3214,-0.360,0.030
3215,-0.385,-0.025
3216,-0.420,-0.060
3217,-0.460,-0.095
3218,-0.505,-0.125
3219,-0.520,-0.160
3220,-0.555,-0.190
3221,-0.600,-0.210
3222,-0.620,-0.240
3223,-0.635,-0.280
3224,-0.670,-0.325
3225,-0.680,-0.360
3226,-0.710,-0.405
3227,-0.735,-0.405
3228,-0.750,-0.455
3229,-0.770,-0.455
3230,-0.820,-0.480
3231,-0.805,-0.485
3232,-0.810,-0.490
3233,-0.820,-0.500
3234,-0.830,-0.490
3235,-0.820,-0.480
3236,-0.825,-0.495
3237,-0.835,-0.520
3238,-0.855,-0.540
3239,-0.870,-0.565
3240,-0.865,-0.560
3241,-0.870,-0.585
3242,-0.885,-0.585
3243,-0.885,-0.590
3244,-0.885,-0.565
3245,-0.890,-0.570
3246,-0.885,-0.570
3247,-0.875,-0.545
3248,-0.865,-0.550
3249,-0.870,-0.580
3250,-0.865,-0.575
3251,-0.880,-0.610
3252,-0.890,-0.610
3253,-0.885,-0.595
3254,-0.885,-0.610
3255,-0.890,-0.595
3256,-0.890,-0.590
3257,-0.875,-0.565
3258,-0.870,-0.575
3259,-0.855,-0.565
3260,-0.850,-0.570
3261,-0.865,-0.555
3262,-0.870,-0.565
3263,-0.870,-0.560
3264,-0.865,-0.580
3265,-0.875,-0.555
3266,-0.875,-0.555
3267,-0.860,-0.550
3268,-0.860,-0.535
3269,-0.845,-0.540
3270,-0.850,-0.530
3271,-0.835,-0.525
3272,-0.845,-0.530
3273,-0.840,-0.540
3274,-0.855,-0.535
3275,-0.870,-0.550
3276,-0.870,-0.540
3277,-0.880,-0.550
3278,-0.880,-0.560
3279,-0.875,-0.520
3280,-0.865,-0.530
3281,-0.860,-0.525
3282,-0.850,-0.520
3283,-0.845,-0.510
3284,-0.850,-0.520
3285,-0.845,-0.520
3286,-0.865,-0.540
3287,-0.870,-0.555
3288,-0.885,-0.550
3289,-0.900,-0.555
3290,-0.915,-0.570
3291,-0.895,-0.575
3292,-0.900,-0.565
3293,-0.910,-0.550
3294,-0.905,-0.535
3295,-0.885,-0.535
3296,-0.900,-0.540
3297,-0.915,-0.540
3298,-0.895,-0.560
3299,-0.900,-0.575
3300,-0.915,-0.575
3301,-0.945,-0.570
3302,-0.930,-0.580
3303,-0.935,-0.580
3304,-0.935,-0.580
3305,-0.920,-0.570
3306,-0.915,-0.570
3307,-0.915,-0.550
3308,-0.910,-0.575
3309,-0.915,-0.585
3310,-0.910,-0.580
3311,-0.930,-0.580
3312,-0.945,-0.605
3313,-0.960,-0.605
3314,-0.950,-0.635
3315,-0.945,-0.590
3316,-0.930,-0.580
3317,-0.930,-0.585
3318,-0.915,-0.555
3319,-0.910,-0.550
3320,-0.900,-0.585
3321,-0.895,-0.580
3322,-0.905,-0.595
3323,-0.920,-0.595
3324,-0.935,-0.615
3325,-0.980,-0.600
3326,-0.955,-0.630
3327,-0.980,-0.610
3328,-0.965,-0.590
3329,-0.960,-0.580
3330,-0.960,-0.565
3331,-0.935,-0.560
3332,-0.940,-0.565
3333,-0.945,-0.565
3334,-0.930,-0.585
3335,-0.945,-0.590
3336,-0.965,-0.605
3337,-0.970,-0.605
3338,-0.955,-0.615
3339,-0.975,-0.600
3340,-0.950,-0.590
3341,-0.945,-0.590
3342,-0.930,-0.575
3343,-0.925,-0.575
3344,-0.920,-0.570
3345,-0.935,-0.590
3346,-0.945,-0.585
3347,-0.950,-0.590
3348,-0.950,-0.605
3349,-0.955,-0.600
3350,-0.965,-0.600
3351,-0.960,-0.595
3352,-0.955,-0.570
3353,-0.945,-0.580
3354,-0.930,-0.570
3355,-0.925,-0.560
3356,-0.930,-0.575
3357,-0.940,-0.560
3358,-0.960,-0.570
3359,-0.960,-0.585
3360,-0.950,-0.575
3361,-0.975,-0.600
3362,-0.970,-0.590
3363,-0.965,-0.600
3364,-0.965,-0.575
3365,-0.960,-0.585
3366,-0.960,-0.575
3367,-0.945,-0.555
3368,-0.940,-0.560
3369,-0.945,-0.565
3370,-0.935,-0.585
3371,-0.940,-0.580
3372,-0.955,-0.585
3373,-0.965,-0.600
3374,-0.970,-0.595
3375,-0.960,-0.600
3376,-0.950,-0.585
3377,-0.950,-0.575
3378,-0.935,-0.570
3379,-0.930,-0.565
3380,-0.935,-0.585
3381,-0.935,-0.570
3382,-0.945,-0.580
3383,-0.965,-0.595
3384,-0.945,-0.605
3385,-0.965,-0.605
3386,-0.970,-0.600
3387,-0.955,-0.590
3388,-0.950,-0.595
3389,-0.950,-0.575
3390,-0.935,-0.590
3391,-0.910,-0.575
3392,-0.910,-0.585
3393,-0.915,-0.580
3394,-0.925,-0.585
3395,-0.930,-0.590
3396,-0.935,-0.590
3397,-0.980,-0.595
3398,-0.965,-0.610
3399,-0.955,-0.590
3400,-0.965,-0.600
3401,-0.950,-0.585
3402,-0.950,-0.565
3403,-0.960,-0.560
3404,-0.940,-0.560
3405,-0.935,-0.570
3406,-0.940,-0.570
3407,-0.945,-0.570
3408,-0.935,-0.580
3409,-0.960,-0.585
3410,-0.960,-0.585
3411,-0.960,-0.590
3412,-0.960,-0.585
3413,-0.945,-0.570
3414,-0.935,-0.575
3415,-0.925,-0.565
3416,-0.920,-0.575
3417,-0.920,-0.575
3418,-0.925,-0.585
3419,-0.930,-0.595
3420,-0.935,-0.585
3421,-0.945,-0.600
3422,-0.950,-0.580
3423,-0.945,-0.590
3424,-0.945,-0.575
3425,-0.940,-0.580
3426,-0.930,-0.585
3427,-0.915,-0.545
3428,-0.915,-0.575
3429,-0.910,-0.560
3430,-0.920,-0.565
3431,-0.930,-0.590
3432,-0.945,-0.585
3433,-0.945,-0.600
3434,-0.950,-0.600
3435,-0.950,-0.575
3436,-0.940,-0.580
3437,-0.925,-0.570
3438,-0.920,-0.575
3439,-0.915,-0.570
3440,-0.920,-0.570
3441,-0.910,-0.570
3442,-0.910,-0.570
3443,-0.905,-0.585
3444,-0.925,-0.590
3445,-0.920,-0.590
3446,-0.920,-0.585
3447,-0.910,-0.595
3448,-0.905,-0.570
3449,-0.895,-0.570
3450,-0.870,-0.555
3451,-0.845,-0.565
3452,-0.840,-0.550
3453,-0.830,-0.565
3454,-0.825,-0.580
3455,-0.835,-0.590
3456,-0.840,-0.585
3457,-0.830,-0.570
3458,-0.830,-0.580
3459,-0.805,-0.555
3460,-0.780,-0.535
3461,-0.755,-0.530
3462,-0.740,-0.495
3463,-0.725,-0.470
3464,-0.720,-0.460
3465,-0.720,-0.465
3466,-0.730,-0.440
3467,-0.730,-0.425
3468,-0.755,-0.415
3469,-0.765,-0.420
3470,-0.800,-0.420
3471,-0.805,-0.415
3472,-0.800,-0.410
3473,-0.800,-0.405
3474,-0.805,-0.420
3475,-0.810,-0.410
3476,-0.840,-0.425
3477,-0.845,-0.430
3478,-0.875,-0.445
3479,-0.885,-0.470
3480,-0.895,-0.500
3481,-0.905,-0.535
3482,-0.900,-0.545
3483,-0.930,-0.535
3484,-0.925,-0.535
3485,-0.910,-0.535
3486,-0.910,-0.530
3487,-0.900,-0.525
3488,-0.885,-0.520
3489,-0.900,-0.525
3490,-0.915,-0.545
3491,-0.925,-0.550
3492,-0.930,-0.570
3493,-0.955,-0.570
3494,-0.945,-0.585
3495,-0.940,-0.570
3496,-0.925,-0.575
3497,-0.935,-0.565
3498,-0.905,-0.550
3499,-0.905,-0.555
3500,-0.895,-0.555
3501,-0.905,-0.555
3502,-0.900,-0.575
3503,-0.910,-0.575
3504,-0.925,-0.570
3505,-0.925,-0.580
3506,-0.930,-0.590
3507,-0.920,-0.570
3508,-0.915,-0.555
3509,-0.905,-0.550
3510,-0.885,-0.535
3511,-0.865,-0.530
3512,-0.850,-0.535
3513,-0.800,-0.550
3514,-0.750,-0.540
3515,-0.650,-0.495
3516,-0.560,-0.380
3517,-0.440,-0.215
3518,-0.300,0.000
3519,-0.155,0.250
3520,-0.030,0.545
3521,0.000,0.820
3522,-0.040,1.055
3523,-0.175,1.205
3524,-0.395,1.230
3525,-0.660,1.125
3526,-0.980,0.880
3527,-1.230,0.525
3528,-1.475,0.095
3529,-1.640,-0.335
3530,-1.695,-0.705
3531,-1.650,-0.930
3532,-1.570,-0.985
3533,-1.435,-0.935
3534,-1.315,-0.805
3535,-1.230,-0.720
3536,-1.155,-0.645
3537,-1.090,-0.625
3538,-1.030,-0.605
3539,-0.960,-0.590
3540,-0.910,-0.585
3541,-0.875,-0.555
3542,-0.855,-0.540
3543,-0.815,-0.550
3544,-0.830,-0.515
3545,-0.825,-0.515
3546,-0.830,-0.495
3547,-0.810,-0.500
3548,-0.795,-0.500
3549,-0.795,-0.500
3550,-0.765,-0.485
3551,-0.780,-0.495
3552,-0.775,-0.505
3553,-0.780,-0.520
3554,-0.790,-0.520
3555,-0.785,-0.510
3556,-0.790,-0.485
3557,-0.775,-0.495
3558,-0.765,-0.470
3559,-0.750,-0.455
3560,-0.740,-0.470
3561,-0.730,-0.475
3562,-0.740,-0.470
3563,-0.735,-0.465
3564,-0.740,-0.480
3565,-0.750,-0.480
3566,-0.750,-0.455
3567,-0.750,-0.450
3568,-0.735,-0.440
3569,-0.720,-0.440
3570,-0.715,-0.415
3571,-0.695,-0.410
3572,-0.690,-0.410
3573,-0.690,-0.415
3574,-0.715,-0.425
3575,-0.700,-0.435
3576,-0.710,-0.435
3577,-0.715,-0.420
3578,-0.705,-0.435
3579,-0.700,-0.430
3580,-0.690,-0.400
3581,-0.680,-0.385
3582,-0.655,-0.370
3583,-0.660,-0.365
3584,-0.630,-0.360
3585,-0.625,-0.370
3586,-0.620,-0.360
3587,-0.635,-0.360
3588,-0.620,-0.350
3589,-0.625,-0.360
3590,-0.620,-0.350
3591,-0.605,-0.345
3592,-0.600,-0.325
3593,-0.580,-0.300
3594,-0.575,-0.285
3595,-0.560,-0.265
3596,-0.540,-0.270
3597,-0.535,-0.255
3598,-0.520,-0.250
3599,-0.520,-0.250
