0,-0.780,-0.735
1,-0.780,-0.735
2,-0.780,-0.735
3,-0.780,-0.735
4,-0.780,-0.735
5,-0.780,-0.735
6,-0.780,-0.735
7,-0.780,-0.690
8,-0.780,-0.685
9,-0.775,-0.715
10,-0.755,-0.740
11,-0.755,-0.735
12,-0.745,-0.675
13,-0.745,-0.660
14,-0.765,-0.685
15,-0.760,-0.750
16,-0.745,-0.785
17,-0.745,-0.770
18,-0.760,-0.705
19,-0.760,-0.635
20,-0.750,-0.650
21,-0.735,-0.705
22,-0.705,-0.745
23,-0.695,-0.780
24,-0.690,-0.735
25,-0.705,-0.695
26,-0.725,-0.680
27,-0.720,-0.710
28,-0.700,-0.765
29,-0.665,-0.770
30,-0.645,-0.735
31,-0.610,-0.675
32,-0.595,-0.640
33,-0.580,-0.670
34,-0.550,-0.710
35,-0.520,-0.720
36,-0.535,-0.665
37,-0.540,-0.610
38,-0.550,-0.620
39,-0.545,-0.665
40,-0.535,-0.690
41,-0.540,-0.685
42,-0.545,-0.635
43,-0.560,-0.590
44,-0.575,-0.620
45,-0.585,-0.665
46,-0.580,-0.680
47,-0.580,-0.660
48,-0.590,-0.595
49,-0.605,-0.580
50,-0.605,-0.610
51,-0.605,-0.695
52,-0.610,-0.745
53,-0.610,-0.740
54,-0.645,-0.695
55,-0.685,-0.660
56,-0.690,-0.680
57,-0.715,-0.700
58,-0.700,-0.755
59,-0.715,-0.760
60,-0.735,-0.705
61,-0.755,-0.690
62,-0.790,-0.675
63,-0.775,-0.745
64,-0.795,-0.790
65,-0.785,-0.770
66,-0.795,-0.715
67,-0.810,-0.660
68,-0.780,-0.645
69,-0.765,-0.700
70,-0.755,-0.745
71,-0.740,-0.760
72,-0.740,-0.720
73,-0.785,-0.690
74,-0.825,-0.680
75,-0.840,-0.740
76,-0.890,-0.785
77,-0.925,-0.800
78,-0.960,-0.765
79,-0.965,-0.705
80,-0.950,-0.665
81,-0.870,-0.660
82,-0.730,-0.625
83,-0.555,-0.555
84,-0.345,-0.445
85,-0.140,-0.375
86,0.050,-0.360
87,0.235,-0.405
88,0.410,-0.420
89,0.570,-0.420
90,0.705,-0.405
91,0.800,-0.425
92,0.845,-0.540
93,0.855,-0.695
94,0.845,-0.860
95,0.805,-0.925
96,0.730,-0.890
97,0.650,-0.815
98,0.530,-0.735
99,0.340,-0.665
100,0.065,-0.595
101,-0.260,-0.585
102,-0.555,-0.600
103,-0.745,-0.680
104,-0.820,-0.750
105,-0.815,-0.820
106,-0.755,-0.815
107,-0.700,-0.740
108,-0.670,-0.675
109,-0.670,-0.700
110,-0.695,-0.730
111,-0.740,-0.745
112,-0.770,-0.765
113,-0.840,-0.695
114,-0.865,-0.660
115,-0.860,-0.690
116,-0.845,-0.710
117,-0.820,-0.705
118,-0.810,-0.650
119,-0.830,-0.625
120,-0.855,-0.615
121,-0.855,-0.680
122,-0.840,-0.720
123,-0.845,-0.725
124,-0.830,-0.680
125,-0.840,-0.625
126,-0.850,-0.620
127,-0.840,-0.655
128,-0.815,-0.690
129,-0.800,-0.690
130,-0.810,-0.625
131,-0.820,-0.595
132,-0.850,-0.605
133,-0.860,-0.660
134,-0.840,-0.715
135,-0.830,-0.710
136,-0.835,-0.655
137,-0.840,-0.605
138,-0.845,-0.605
139,-0.835,-0.620
140,-0.805,-0.670
141,-0.800,-0.635
142,-0.800,-0.615
143,-0.805,-0.550
144,-0.820,-0.550
145,-0.830,-0.615
146,-0.825,-0.660
147,-0.810,-0.670
148,-0.840,-0.630
149,-0.865,-0.570
150,-0.865,-0.550
151,-0.855,-0.575
152,-0.820,-0.615
153,-0.800,-0.605
154,-0.770,-0.535
155,-0.785,-0.500
156,-0.780,-0.495
157,-0.795,-0.525
158,-0.790,-0.590
159,-0.790,-0.595
160,-0.800,-0.550
161,-0.820,-0.520
162,-0.820,-0.505
163,-0.800,-0.545
164,-0.765,-0.575
165,-0.715,-0.565
166,-0.730,-0.485
167,-0.740,-0.450
168,-0.755,-0.465
169,-0.765,-0.520
170,-0.770,-0.605
171,-0.755,-0.625
172,-0.765,-0.575
173,-0.765,-0.535
174,-0.760,-0.520
175,-0.760,-0.550
176,-0.740,-0.595
177,-0.720,-0.605
178,-0.715,-0.575
179,-0.725,-0.535
180,-0.725,-0.545
181,-0.720,-0.600
182,-0.720,-0.660
183,-0.715,-0.650
184,-0.735,-0.630
185,-0.740,-0.600
186,-0.755,-0.630
187,-0.735,-0.665
188,-0.725,-0.705
189,-0.720,-0.670
190,-0.720,-0.620
191,-0.755,-0.595
192,-0.770,-0.660
193,-0.770,-0.725
194,-0.740,-0.750
195,-0.740,-0.720
196,-0.735,-0.670
197,-0.755,-0.665
198,-0.760,-0.685
199,-0.760,-0.745
200,-0.765,-0.750
201,-0.745,-0.730
202,-0.730,-0.655
203,-0.750,-0.650
204,-0.740,-0.690
205,-0.740,-0.750
206,-0.745,-0.775
207,-0.720,-0.740
208,-0.760,-0.705
209,-0.785,-0.695
210,-0.780,-0.720
211,-0.785,-0.770
212,-0.755,-0.770
213,-0.750,-0.725
214,-0.755,-0.655
215,-0.770,-0.655
216,-0.780,-0.695
217,-0.770,-0.780
218,-0.765,-0.815
219,-0.775,-0.780
220,-0.795,-0.730
221,-0.805,-0.690
222,-0.830,-0.725
223,-0.820,-0.760
224,-0.800,-0.780
225,-0.785,-0.735
226,-0.785,-0.700
227,-0.800,-0.670
228,-0.805,-0.715
229,-0.810,-0.765
230,-0.825,-0.800
231,-0.825,-0.760
232,-0.850,-0.720
233,-0.870,-0.720
234,-0.880,-0.760
235,-0.860,-0.795
236,-0.850,-0.800
237,-0.840,-0.730
238,-0.835,-0.680
239,-0.855,-0.675
240,-0.855,-0.730
241,-0.850,-0.775
242,-0.840,-0.795
243,-0.845,-0.770
244,-0.855,-0.725
245,-0.865,-0.700
246,-0.865,-0.750
247,-0.840,-0.800
248,-0.825,-0.785
249,-0.820,-0.740
250,-0.810,-0.695
251,-0.820,-0.690
252,-0.810,-0.755
253,-0.775,-0.800
254,-0.790,-0.785
255,-0.785,-0.750
256,-0.800,-0.715
257,-0.815,-0.730
258,-0.790,-0.780
259,-0.755,-0.805
260,-0.720,-0.785
261,-0.710,-0.720
262,-0.685,-0.690
263,-0.690,-0.685
264,-0.670,-0.750
265,-0.655,-0.800
266,-0.625,-0.775
267,-0.610,-0.720
268,-0.630,-0.675
269,-0.630,-0.680
270,-0.635,-0.710
271,-0.630,-0.740
272,-0.610,-0.730
273,-0.605,-0.675
274,-0.615,-0.605
275,-0.625,-0.615
276,-0.625,-0.680
277,-0.640,-0.725
278,-0.630,-0.745
279,-0.655,-0.715
280,-0.665,-0.665
281,-0.690,-0.655
282,-0.685,-0.695
283,-0.685,-0.745
284,-0.675,-0.760
285,-0.680,-0.730
286,-0.705,-0.665
287,-0.740,-0.665
288,-0.755,-0.725
289,-0.765,-0.805
290,-0.790,-0.845
291,-0.800,-0.815
292,-0.830,-0.775
293,-0.850,-0.745
294,-0.855,-0.760
295,-0.845,-0.790
296,-0.840,-0.790
297,-0.840,-0.770
298,-0.855,-0.710
299,-0.855,-0.715
300,-0.865,-0.775
301,-0.855,-0.825
302,-0.855,-0.840
303,-0.850,-0.795
304,-0.875,-0.760
305,-0.880,-0.745
306,-0.900,-0.785
307,-0.910,-0.840
308,-0.925,-0.830
309,-0.975,-0.785
310,-1.035,-0.735
311,-1.070,-0.740
312,-1.070,-0.785
313,-1.020,-0.805
314,-0.915,-0.785
315,-0.805,-0.700
316,-0.675,-0.585
317,-0.490,-0.520
318,-0.280,-0.515
319,-0.070,-0.490
320,0.135,-0.450
321,0.315,-0.375
322,0.480,-0.330
323,0.615,-0.360
324,0.715,-0.500
325,0.790,-0.630
326,0.795,-0.765
327,0.770,-0.835
328,0.710,-0.880
329,0.635,-0.885
330,0.550,-0.835
331,0.425,-0.745
332,0.190,-0.610
333,-0.135,-0.535
334,-0.450,-0.540
335,-0.690,-0.685
336,-0.830,-0.830
337,-0.870,-0.915
338,-0.870,-0.910
339,-0.840,-0.845
340,-0.800,-0.800
341,-0.790,-0.800
342,-0.775,-0.830
343,-0.780,-0.835
344,-0.820,-0.795
345,-0.865,-0.755
346,-0.890,-0.715
347,-0.915,-0.750
348,-0.920,-0.810
349,-0.930,-0.865
350,-0.915,-0.840
351,-0.935,-0.765
352,-0.950,-0.730
353,-0.970,-0.740
354,-0.955,-0.785
355,-0.935,-0.795
356,-0.920,-0.780
357,-0.920,-0.700
358,-0.925,-0.670
359,-0.905,-0.685
360,-0.905,-0.750
361,-0.890,-0.780
362,-0.905,-0.785
363,-0.915,-0.750
364,-0.930,-0.700
365,-0.975,-0.690
366,-0.945,-0.720
367,-0.935,-0.775
368,-0.905,-0.775
369,-0.905,-0.710
370,-0.915,-0.645
371,-0.915,-0.630
372,-0.925,-0.675
373,-0.915,-0.730
374,-0.910,-0.755
375,-0.920,-0.710
376,-0.935,-0.665
377,-0.925,-0.645
378,-0.930,-0.665
379,-0.920,-0.730
380,-0.885,-0.715
381,-0.880,-0.680
382,-0.905,-0.600
383,-0.900,-0.585
384,-0.905,-0.625
385,-0.890,-0.670
386,-0.870,-0.725
387,-0.870,-0.675
388,-0.895,-0.605
389,-0.915,-0.570
390,-0.915,-0.615
391,-0.895,-0.655
392,-0.875,-0.670
393,-0.865,-0.615
394,-0.850,-0.540
395,-0.850,-0.530
396,-0.885,-0.555
397,-0.850,-0.625
398,-0.835,-0.660
399,-0.830,-0.650
400,-0.840,-0.595
401,-0.860,-0.565
402,-0.875,-0.595
403,-0.850,-0.630
404,-0.840,-0.655
405,-0.820,-0.605
406,-0.810,-0.540
407,-0.825,-0.525
408,-0.825,-0.590
409,-0.810,-0.665
410,-0.815,-0.695
411,-0.790,-0.655
412,-0.820,-0.625
413,-0.835,-0.595
414,-0.835,-0.630
415,-0.810,-0.695
416,-0.790,-0.720
417,-0.770,-0.710
418,-0.775,-0.660
419,-0.775,-0.615
420,-0.785,-0.610
421,-0.800,-0.680
422,-0.795,-0.755
423,-0.790,-0.800
424,-0.790,-0.785
425,-0.815,-0.725
426,-0.820,-0.700
427,-0.825,-0.725
428,-0.815,-0.775
429,-0.785,-0.795
430,-0.790,-0.770
431,-0.790,-0.730
432,-0.800,-0.710
433,-0.815,-0.755
434,-0.815,-0.815
435,-0.815,-0.860
436,-0.820,-0.845
437,-0.840,-0.790
438,-0.850,-0.740
439,-0.855,-0.755
440,-0.855,-0.780
441,-0.840,-0.835
442,-0.820,-0.825
443,-0.815,-0.765
444,-0.830,-0.725
445,-0.840,-0.740
446,-0.845,-0.785
447,-0.850,-0.860
448,-0.840,-0.850
449,-0.855,-0.810
450,-0.870,-0.775
451,-0.875,-0.755
452,-0.850,-0.810
453,-0.835,-0.835
454,-0.830,-0.835
455,-0.825,-0.795
456,-0.860,-0.760
457,-0.890,-0.750
458,-0.875,-0.810
459,-0.875,-0.885
460,-0.885,-0.885
461,-0.875,-0.860
462,-0.895,-0.795
463,-0.900,-0.755
464,-0.915,-0.785
465,-0.915,-0.840
466,-0.880,-0.870
467,-0.895,-0.845
468,-0.920,-0.795
469,-0.925,-0.785
470,-0.940,-0.825
471,-0.940,-0.880
472,-0.945,-0.885
473,-0.950,-0.850
474,-0.960,-0.790
475,-0.955,-0.795
476,-0.940,-0.825
477,-0.930,-0.845
478,-0.920,-0.825
479,-0.920,-0.785
480,-0.930,-0.750
481,-0.930,-0.775
482,-0.925,-0.825
483,-0.920,-0.875
484,-0.920,-0.860
485,-0.925,-0.825
486,-0.925,-0.795
487,-0.905,-0.805
488,-0.870,-0.835
489,-0.845,-0.850
490,-0.825,-0.815
491,-0.835,-0.765
492,-0.860,-0.750
493,-0.850,-0.775
494,-0.835,-0.840
495,-0.795,-0.885
496,-0.770,-0.855
497,-0.760,-0.800
498,-0.750,-0.755
499,-0.750,-0.755
500,-0.720,-0.785
501,-0.680,-0.820
502,-0.665,-0.785
503,-0.660,-0.730
504,-0.670,-0.685
505,-0.700,-0.675
506,-0.690,-0.750
507,-0.690,-0.815
508,-0.695,-0.810
509,-0.700,-0.760
510,-0.735,-0.720
511,-0.745,-0.710
512,-0.735,-0.740
513,-0.720,-0.780
514,-0.720,-0.770
515,-0.710,-0.745
516,-0.715,-0.705
517,-0.740,-0.720
518,-0.750,-0.770
519,-0.765,-0.830
520,-0.800,-0.860
521,-0.840,-0.820
522,-0.875,-0.785
523,-0.885,-0.785
524,-0.900,-0.825
525,-0.880,-0.865
526,-0.875,-0.855
527,-0.885,-0.805
528,-0.890,-0.760
529,-0.905,-0.770
530,-0.925,-0.820
531,-0.925,-0.885
532,-0.935,-0.900
533,-0.940,-0.855
534,-0.945,-0.790
535,-0.970,-0.780
536,-0.955,-0.800
537,-0.950,-0.865
538,-0.905,-0.865
539,-0.920,-0.835
540,-0.930,-0.795
541,-0.965,-0.765
542,-1.000,-0.825
543,-1.035,-0.885
544,-1.070,-0.940
545,-1.125,-0.910
546,-1.155,-0.865
547,-1.160,-0.770
548,-1.100,-0.770
549,-0.980,-0.770
550,-0.820,-0.740
551,-0.630,-0.660
552,-0.435,-0.560
553,-0.250,-0.480
554,-0.060,-0.475
555,0.085,-0.485
556,0.265,-0.530
557,0.420,-0.520
558,0.545,-0.510
559,0.625,-0.525
560,0.675,-0.605
561,0.710,-0.780
562,0.715,-0.915
563,0.680,-0.980
564,0.635,-0.920
565,0.555,-0.820
566,0.450,-0.715
567,0.245,-0.670
568,0.015,-0.685
569,-0.275,-0.730
570,-0.560,-0.745
571,-0.760,-0.770
572,-0.895,-0.820
573,-0.945,-0.880
574,-0.925,-0.935
575,-0.855,-0.960
576,-0.815,-0.910
577,-0.815,-0.825
578,-0.850,-0.785
579,-0.925,-0.810
580,-0.945,-0.880
581,-0.965,-0.905
582,-0.995,-0.900
583,-1.015,-0.850
584,-1.020,-0.795
585,-1.030,-0.780
586,-1.015,-0.810
587,-0.985,-0.860
588,-0.990,-0.855
589,-0.990,-0.810
590,-1.020,-0.755
591,-1.035,-0.765
592,-1.030,-0.810
593,-1.030,-0.850
594,-1.000,-0.840
595,-0.995,-0.790
596,-1.000,-0.725
597,-1.005,-0.715
598,-0.995,-0.765
599,-0.970,-0.790
600,-0.950,-0.810
601,-0.960,-0.765
602,-1.005,-0.730
603,-1.015,-0.735
604,-1.020,-0.765
605,-1.015,-0.840
606,-1.010,-0.830
607,-0.995,-0.770
608,-0.990,-0.715
609,-0.990,-0.675
610,-1.000,-0.705
611,-0.980,-0.745
612,-0.970,-0.760
613,-0.945,-0.725
614,-0.965,-0.675
615,-0.985,-0.670
616,-0.980,-0.705
617,-0.980,-0.740
618,-0.975,-0.735
619,-0.975,-0.680
620,-0.960,-0.645
621,-0.960,-0.615
622,-0.940,-0.660
623,-0.935,-0.675
624,-0.940,-0.660
625,-0.930,-0.630
626,-0.970,-0.605
627,-0.965,-0.650
628,-0.970,-0.695
629,-0.955,-0.695
630,-0.945,-0.660
631,-0.935,-0.585
632,-0.940,-0.585
633,-0.930,-0.620
634,-0.900,-0.645
635,-0.880,-0.690
636,-0.880,-0.645
637,-0.900,-0.595
638,-0.905,-0.580
639,-0.935,-0.585
640,-0.940,-0.675
641,-0.935,-0.735
642,-0.940,-0.720
643,-0.925,-0.660
644,-0.890,-0.605
645,-0.880,-0.585
646,-0.865,-0.635
647,-0.860,-0.695
648,-0.855,-0.715
649,-0.870,-0.685
650,-0.895,-0.665
651,-0.890,-0.665
652,-0.895,-0.745
653,-0.890,-0.800
654,-0.885,-0.800
655,-0.880,-0.740
656,-0.885,-0.680
657,-0.895,-0.680
658,-0.900,-0.710
659,-0.870,-0.785
660,-0.850,-0.820
661,-0.850,-0.810
662,-0.865,-0.765
663,-0.890,-0.720
664,-0.875,-0.745
665,-0.890,-0.805
666,-0.885,-0.855
667,-0.900,-0.835
668,-0.870,-0.785
669,-0.885,-0.740
670,-0.880,-0.735
671,-0.895,-0.775
672,-0.880,-0.835
673,-0.880,-0.825
674,-0.905,-0.775
675,-0.930,-0.775
676,-0.935,-0.775
677,-0.925,-0.825
678,-0.920,-0.865
679,-0.900,-0.865
680,-0.895,-0.785
681,-0.900,-0.730
682,-0.910,-0.695
683,-0.910,-0.755
684,-0.915,-0.825
685,-0.910,-0.860
686,-0.925,-0.865
687,-0.950,-0.805
688,-0.955,-0.785
689,-0.965,-0.810
690,-0.970,-0.850
691,-0.960,-0.860
692,-0.940,-0.820
693,-0.935,-0.765
694,-0.935,-0.740
695,-0.945,-0.775
696,-0.940,-0.820
697,-0.945,-0.835
698,-0.950,-0.800
699,-0.970,-0.765
700,-0.995,-0.785
701,-1.000,-0.845
702,-1.010,-0.885
703,-1.010,-0.865
704,-1.010,-0.795
705,-1.025,-0.740
706,-1.000,-0.735
707,-1.000,-0.800
708,-0.995,-0.855
709,-0.980,-0.865
710,-0.990,-0.835
711,-1.000,-0.780
712,-1.020,-0.760
713,-1.015,-0.785
714,-1.025,-0.830
715,-1.005,-0.870
716,-0.985,-0.855
717,-0.985,-0.795
718,-0.985,-0.755
719,-0.970,-0.755
720,-0.975,-0.800
721,-0.950,-0.845
722,-0.955,-0.830
723,-0.950,-0.795
724,-0.955,-0.765
725,-0.955,-0.780
726,-0.950,-0.835
727,-0.930,-0.850
728,-0.905,-0.825
729,-0.895,-0.745
730,-0.875,-0.695
731,-0.860,-0.735
732,-0.845,-0.805
733,-0.810,-0.825
734,-0.810,-0.825
735,-0.800,-0.785
736,-0.805,-0.725
737,-0.795,-0.705
738,-0.790,-0.755
739,-0.755,-0.790
740,-0.750,-0.775
741,-0.740,-0.735
742,-0.745,-0.670
743,-0.770,-0.635
744,-0.765,-0.660
745,-0.770,-0.745
746,-0.765,-0.765
747,-0.760,-0.775
748,-0.790,-0.715
749,-0.810,-0.665
750,-0.820,-0.675
751,-0.805,-0.730
752,-0.795,-0.780
753,-0.785,-0.765
754,-0.785,-0.730
755,-0.795,-0.670
756,-0.835,-0.630
757,-0.860,-0.720
758,-0.880,-0.790
759,-0.900,-0.835
760,-0.910,-0.855
761,-0.915,-0.775
762,-0.940,-0.735
763,-0.975,-0.740
764,-0.955,-0.745
765,-0.955,-0.815
766,-0.940,-0.770
767,-0.925,-0.735
768,-0.955,-0.715
769,-0.975,-0.750
770,-0.980,-0.795
771,-1.010,-0.825
772,-1.005,-0.810
773,-1.000,-0.750
774,-1.005,-0.735
775,-0.990,-0.755
776,-0.990,-0.790
777,-0.990,-0.810
778,-1.010,-0.765
779,-1.045,-0.715
780,-1.100,-0.725
781,-1.175,-0.790
782,-1.200,-0.855
783,-1.200,-0.865
784,-1.170,-0.840
785,-1.110,-0.735
786,-1.010,-0.635
787,-0.865,-0.580
788,-0.680,-0.575
789,-0.465,-0.550
790,-0.265,-0.475
791,-0.090,-0.370
792,0.065,-0.305
793,0.210,-0.265
794,0.350,-0.325
795,0.500,-0.405
796,0.605,-0.485
797,0.665,-0.510
798,0.700,-0.590
799,0.695,-0.680
800,0.660,-0.775
801,0.630,-0.785
802,0.535,-0.710
803,0.405,-0.570
804,0.150,-0.455
805,-0.160,-0.440
806,-0.470,-0.540
807,-0.690,-0.675
808,-0.840,-0.785
809,-0.895,-0.830
810,-0.925,-0.780
811,-0.900,-0.760
812,-0.860,-0.770
813,-0.805,-0.790
814,-0.800,-0.765
815,-0.810,-0.730
816,-0.875,-0.680
817,-0.950,-0.670
818,-1.000,-0.730
819,-1.020,-0.790
820,-1.045,-0.835
821,-1.050,-0.790
822,-1.065,-0.715
823,-1.065,-0.695
824,-1.060,-0.690
825,-1.050,-0.730
826,-1.015,-0.755
827,-1.010,-0.730
828,-1.015,-0.680
829,-1.055,-0.645
830,-1.045,-0.660
831,-1.035,-0.705
832,-1.035,-0.750
833,-1.025,-0.740
834,-1.030,-0.685
835,-1.030,-0.640
836,-1.030,-0.620
837,-1.020,-0.665
838,-1.020,-0.695
839,-1.000,-0.680
840,-1.025,-0.640
841,-1.025,-0.625
842,-1.045,-0.640
843,-1.050,-0.705
844,-1.045,-0.710
845,-1.040,-0.685
846,-1.030,-0.615
847,-1.030,-0.610
848,-1.015,-0.635
849,-1.010,-0.655
850,-1.000,-0.630
851,-1.010,-0.585
852,-1.035,-0.575
853,-1.040,-0.605
854,-1.025,-0.655
855,-1.000,-0.665
856,-0.995,-0.615
857,-1.015,-0.560
858,-1.025,-0.555
859,-1.020,-0.570
860,-1.005,-0.625
861,-0.985,-0.635
862,-0.970,-0.580
863,-0.975,-0.520
864,-1.015,-0.480
865,-1.020,-0.515
866,-1.015,-0.590
867,-1.010,-0.625
868,-0.985,-0.595
869,-0.960,-0.550
870,-0.965,-0.525
871,-0.960,-0.540
872,-0.970,-0.580
873,-0.950,-0.575
874,-0.950,-0.530
875,-0.940,-0.505
876,-0.965,-0.510
877,-0.965,-0.565
878,-0.935,-0.610
879,-0.910,-0.610
880,-0.925,-0.565
881,-0.945,-0.530
882,-0.950,-0.510
883,-0.950,-0.575
884,-0.950,-0.615
885,-0.900,-0.640
886,-0.900,-0.610
887,-0.890,-0.550
888,-0.890,-0.525
889,-0.915,-0.560
890,-0.890,-0.625
891,-0.890,-0.660
892,-0.895,-0.665
893,-0.885,-0.615
894,-0.910,-0.590
895,-0.920,-0.590
896,-0.905,-0.655
897,-0.905,-0.670
898,-0.885,-0.645
899,-0.870,-0.590
900,-0.900,-0.560
901,-0.925,-0.580
902,-0.915,-0.655
903,-0.925,-0.705
904,-0.935,-0.710
905,-0.950,-0.645
906,-0.965,-0.610
907,-0.960,-0.630
908,-0.950,-0.655
909,-0.925,-0.705
910,-0.890,-0.680
911,-0.875,-0.615
912,-0.895,-0.605
913,-0.905,-0.635
914,-0.920,-0.695
915,-0.915,-0.710
916,-0.935,-0.680
917,-0.950,-0.640
918,-0.950,-0.660
919,-0.950,-0.700
920,-0.935,-0.695
921,-0.925,-0.645
922,-0.950,-0.600
923,-0.945,-0.600
924,-0.925,-0.640
925,-0.925,-0.700
926,-0.925,-0.690
927,-0.935,-0.660
928,-0.960,-0.625
929,-0.970,-0.635
930,-0.975,-0.700
931,-0.990,-0.730
932,-0.970,-0.700
933,-0.990,-0.660
934,-0.990,-0.610
935,-1.005,-0.625
936,-0.990,-0.680
937,-0.970,-0.715
938,-0.975,-0.710
939,-0.985,-0.685
940,-1.015,-0.650
941,-1.010,-0.700
942,-1.015,-0.720
943,-1.000,-0.730
944,-1.000,-0.690
945,-0.985,-0.650
946,-0.995,-0.630
947,-0.950,-0.670
948,-0.935,-0.710
949,-0.925,-0.695
950,-0.925,-0.675
951,-0.940,-0.620
952,-0.945,-0.630
953,-0.940,-0.660
954,-0.925,-0.705
955,-0.860,-0.720
956,-0.830,-0.660
957,-0.825,-0.580
958,-0.835,-0.565
959,-0.790,-0.590
960,-0.765,-0.650
961,-0.755,-0.660
962,-0.750,-0.595
963,-0.760,-0.580
964,-0.785,-0.540
965,-0.770,-0.585
966,-0.770,-0.635
967,-0.755,-0.635
968,-0.745,-0.570
969,-0.745,-0.520
970,-0.775,-0.510
971,-0.775,-0.545
972,-0.780,-0.630
973,-0.775,-0.640
974,-0.785,-0.610
975,-0.810,-0.560
976,-0.830,-0.535
977,-0.840,-0.560
978,-0.840,-0.635
979,-0.840,-0.665
980,-0.850,-0.655
981,-0.865,-0.615
982,-0.900,-0.590
983,-0.910,-0.625
984,-0.920,-0.670
985,-0.925,-0.690
986,-0.930,-0.660
987,-0.960,-0.620
988,-0.990,-0.605
989,-1.005,-0.660
990,-1.015,-0.700
991,-1.010,-0.685
992,-1.005,-0.625
993,-0.985,-0.605
994,-0.980,-0.615
995,-0.960,-0.650
996,-0.950,-0.670
997,-0.960,-0.625
998,-0.980,-0.595
999,-1.060,-0.675
1000,-1.110,-0.740
1001,-1.150,-0.745
1002,-1.190,-0.685
1003,-1.225,-0.615
1004,-1.180,-0.580
1005,-1.100,-0.595
1006,-0.965,-0.595
1007,-0.815,-0.535
1008,-0.625,-0.420
1009,-0.435,-0.335
1010,-0.250,-0.270
1011,-0.075,-0.265
1012,0.100,-0.300
1013,0.260,-0.290
1014,0.420,-0.280
1015,0.545,-0.285
1016,0.625,-0.350
1017,0.680,-0.495
1018,0.695,-0.655
1019,0.695,-0.745
1020,0.635,-0.725
1021,0.540,-0.660
1022,0.390,-0.570
1023,0.190,-0.555
1024,-0.065,-0.530
1025,-0.370,-0.555
1026,-0.640,-0.540
1027,-0.840,-0.570
1028,-0.960,-0.605
1029,-0.980,-0.680
1030,-0.940,-0.740
1031,-0.875,-0.750
1032,-0.825,-0.680
1033,-0.815,-0.615
1034,-0.845,-0.595
1035,-0.885,-0.615
1036,-0.935,-0.680
1037,-0.980,-0.705
1038,-1.020,-0.660
1039,-1.040,-0.615
1040,-1.060,-0.610
1041,-1.065,-0.625
1042,-1.020,-0.670
1043,-1.010,-0.635
1044,-1.020,-0.610
1045,-1.035,-0.575
1046,-1.060,-0.585
1047,-1.065,-0.640
1048,-1.060,-0.685
1049,-1.035,-0.675
1050,-1.020,-0.615
1051,-1.015,-0.550
1052,-1.010,-0.530
1053,-0.995,-0.565
1054,-0.990,-0.615
1055,-0.995,-0.610
1056,-1.005,-0.585
1057,-1.035,-0.550
1058,-1.030,-0.580
1059,-1.035,-0.615
1060,-1.035,-0.645
1061,-1.030,-0.595
1062,-1.040,-0.535
1063,-1.040,-0.550
1064,-1.015,-0.570
1065,-1.010,-0.565
1066,-0.995,-0.545
1067,-0.985,-0.500
1068,-1.000,-0.490
1069,-1.025,-0.535
1070,-1.030,-0.580
1071,-1.025,-0.615
1072,-1.025,-0.560
1073,-1.025,-0.505
1074,-1.025,-0.470
1075,-1.025,-0.485
1076,-1.005,-0.540
1077,-0.970,-0.525
1078,-0.960,-0.500
1079,-0.960,-0.440
1080,-0.985,-0.415
1081,-1.000,-0.455
1082,-1.025,-0.525
1083,-1.000,-0.530
1084,-0.990,-0.515
1085,-0.985,-0.455
1086,-0.980,-0.425
1087,-0.975,-0.430
1088,-0.955,-0.485
1089,-0.930,-0.470
1090,-0.915,-0.435
1091,-0.930,-0.405
1092,-0.945,-0.410
1093,-0.950,-0.470
1094,-0.955,-0.525
1095,-0.945,-0.530
1096,-0.945,-0.490
1097,-0.945,-0.440
1098,-0.970,-0.425
1099,-0.960,-0.460
1100,-0.935,-0.530
1101,-0.920,-0.530
1102,-0.905,-0.485
1103,-0.905,-0.435
1104,-0.915,-0.430
1105,-0.920,-0.490
1106,-0.915,-0.545
1107,-0.905,-0.590
1108,-0.930,-0.550
1109,-0.930,-0.510
1110,-0.945,-0.505
1111,-0.930,-0.555
1112,-0.905,-0.600
1113,-0.880,-0.610
1114,-0.865,-0.555
1115,-0.890,-0.490
1116,-0.910,-0.485
1117,-0.930,-0.525
1118,-0.915,-0.615
1119,-0.925,-0.660
1120,-0.915,-0.650
1121,-0.940,-0.590
1122,-0.940,-0.535
1123,-0.940,-0.560
1124,-0.940,-0.600
1125,-0.905,-0.650
1126,-0.895,-0.635
1127,-0.910,-0.580
1128,-0.910,-0.540
1129,-0.945,-0.565
1130,-0.955,-0.625
1131,-0.945,-0.665
1132,-0.940,-0.660
1133,-0.970,-0.600
1134,-0.955,-0.575
1135,-0.945,-0.580
1136,-0.930,-0.630
1137,-0.925,-0.620
1138,-0.920,-0.595
1139,-0.940,-0.555
1140,-0.930,-0.545
1141,-0.950,-0.590
1142,-0.950,-0.655
1143,-0.960,-0.655
1144,-0.960,-0.625
1145,-0.975,-0.580
1146,-0.985,-0.555
1147,-0.990,-0.610
1148,-0.975,-0.650
1149,-0.960,-0.635
1150,-0.960,-0.600
1151,-0.965,-0.555
1152,-1.000,-0.550
1153,-1.020,-0.580
1154,-1.005,-0.650
1155,-1.010,-0.670
1156,-1.015,-0.635
1157,-1.030,-0.585
1158,-1.045,-0.570
1159,-1.030,-0.600
1160,-1.015,-0.660
1161,-1.000,-0.640
1162,-0.990,-0.595
1163,-0.995,-0.535
1164,-1.000,-0.550
1165,-1.015,-0.595
1166,-1.020,-0.670
1167,-1.010,-0.680
1168,-1.000,-0.655
1169,-1.010,-0.580
1170,-1.020,-0.565
1171,-1.015,-0.600
1172,-1.015,-0.645
1173,-0.985,-0.650
1174,-0.975,-0.600
1175,-0.970,-0.550
1176,-0.985,-0.540
1177,-0.970,-0.570
1178,-0.980,-0.655
1179,-0.965,-0.660
1180,-0.955,-0.625
1181,-0.965,-0.575
1182,-0.965,-0.570
1183,-0.955,-0.590
1184,-0.935,-0.635
1185,-0.915,-0.630
1186,-0.920,-0.575
1187,-0.915,-0.545
1188,-0.915,-0.540
1189,-0.895,-0.585
1190,-0.870,-0.635
1191,-0.845,-0.645
1192,-0.835,-0.615
1193,-0.820,-0.565
1194,-0.820,-0.550
1195,-0.810,-0.560
1196,-0.770,-0.595
1197,-0.750,-0.560
1198,-0.755,-0.490
1199,-0.760,-0.460
1200,-0.760,-0.470
1201,-0.780,-0.545
1202,-0.780,-0.570
1203,-0.790,-0.560
1204,-0.830,-0.505
1205,-0.840,-0.505
1206,-0.845,-0.535
1207,-0.855,-0.565
1208,-0.815,-0.575
1209,-0.815,-0.520
1210,-0.825,-0.480
1211,-0.835,-0.495
1212,-0.855,-0.540
1213,-0.880,-0.610
1214,-0.900,-0.610
1215,-0.930,-0.595
1216,-0.970,-0.590
1217,-0.970,-0.635
1218,-0.975,-0.645
1219,-0.965,-0.655
1220,-0.970,-0.605
1221,-0.980,-0.525
1222,-0.990,-0.510
1223,-1.000,-0.560
1224,-1.010,-0.610
1225,-1.005,-0.655
1226,-1.005,-0.650
1227,-1.020,-0.580
1228,-1.030,-0.560
1229,-1.030,-0.590
1230,-1.005,-0.635
1231,-1.015,-0.645
1232,-1.000,-0.630
1233,-1.010,-0.565
1234,-1.050,-0.535
1235,-1.110,-0.590
1236,-1.165,-0.635
1237,-1.195,-0.655
1238,-1.215,-0.640
1239,-1.200,-0.575
1240,-1.160,-0.550
1241,-1.060,-0.540
1242,-0.895,-0.520
1243,-0.690,-0.475
1244,-0.465,-0.370
1245,-0.290,-0.270
1246,-0.115,-0.170
1247,0.050,-0.180
1248,0.225,-0.230
1249,0.365,-0.285
1250,0.495,-0.310
1251,0.580,-0.315
1252,0.605,-0.375
1253,0.630,-0.505
1254,0.615,-0.665
1255,0.605,-0.765
1256,0.575,-0.745
1257,0.520,-0.625
1258,0.415,-0.465
1259,0.235,-0.370
1260,-0.055,-0.360
1261,-0.370,-0.440
1262,-0.655,-0.540
1263,-0.865,-0.585
1264,-0.985,-0.610
1265,-1.035,-0.645
1266,-1.025,-0.700
1267,-0.930,-0.720
1268,-0.880,-0.705
1269,-0.860,-0.630
1270,-0.885,-0.540
1271,-0.905,-0.495
1272,-0.960,-0.545
1273,-1.000,-0.610
1274,-1.040,-0.665
1275,-1.065,-0.655
1276,-1.100,-0.610
1277,-1.110,-0.585
1278,-1.095,-0.590
1279,-1.095,-0.600
1280,-1.065,-0.595
1281,-1.045,-0.565
1282,-1.055,-0.505
1283,-1.060,-0.530
1284,-1.075,-0.575
1285,-1.070,-0.610
1286,-1.055,-0.585
1287,-1.060,-0.555
1288,-1.075,-0.535
1289,-1.090,-0.565
1290,-1.080,-0.605
1291,-1.065,-0.605
1292,-1.045,-0.565
1293,-1.045,-0.515
1294,-1.040,-0.450
1295,-1.045,-0.480
1296,-1.055,-0.535
1297,-1.040,-0.595
1298,-1.035,-0.585
1299,-1.055,-0.535
1300,-1.080,-0.485
1301,-1.085,-0.490
1302,-1.080,-0.525
1303,-1.050,-0.565
1304,-1.040,-0.525
1305,-1.045,-0.465
1306,-1.040,-0.420
1307,-1.045,-0.440
1308,-1.040,-0.485
1309,-1.025,-0.540
1310,-1.020,-0.505
1311,-1.020,-0.460
1312,-1.025,-0.420
1313,-1.025,-0.415
1314,-1.020,-0.470
1315,-1.020,-0.500
1316,-0.980,-0.490
1317,-0.980,-0.450
1318,-0.980,-0.380
1319,-0.990,-0.360
1320,-1.000,-0.405
1321,-0.990,-0.470
1322,-0.980,-0.495
1323,-0.995,-0.465
1324,-0.995,-0.395
1325,-1.010,-0.390
1326,-1.000,-0.435
1327,-0.990,-0.470
1328,-0.970,-0.470
1329,-0.965,-0.415
1330,-0.950,-0.360
1331,-0.955,-0.380
1332,-0.965,-0.425
1333,-0.960,-0.485
1334,-0.930,-0.500
1335,-0.945,-0.460
1336,-0.950,-0.405
1337,-0.970,-0.410
1338,-0.960,-0.440
1339,-0.940,-0.505
1340,-0.910,-0.505
1341,-0.910,-0.485
1342,-0.910,-0.410
1343,-0.920,-0.415
1344,-0.920,-0.480
1345,-0.905,-0.535
1346,-0.910,-0.550
1347,-0.920,-0.520
1348,-0.935,-0.500
1349,-0.965,-0.510
1350,-0.955,-0.560
1351,-0.935,-0.570
1352,-0.930,-0.570
1353,-0.925,-0.515
1354,-0.935,-0.495
1355,-0.935,-0.540
1356,-0.935,-0.595
1357,-0.935,-0.615
1358,-0.960,-0.575
1359,-0.985,-0.535
1360,-0.980,-0.535
1361,-0.970,-0.585
1362,-0.975,-0.635
1363,-0.940,-0.610
1364,-0.945,-0.565
1365,-0.940,-0.510
1366,-0.945,-0.505
1367,-0.945,-0.555
1368,-0.950,-0.625
1369,-0.955,-0.635
1370,-0.955,-0.630
1371,-0.965,-0.560
1372,-0.995,-0.540
1373,-1.010,-0.575
1374,-0.995,-0.625
1375,-0.965,-0.645
1376,-0.955,-0.605
1377,-0.950,-0.530
1378,-0.970,-0.520
1379,-0.980,-0.545
1380,-0.990,-0.595
1381,-0.970,-0.635
1382,-0.990,-0.620
1383,-1.015,-0.580
1384,-1.020,-0.560
1385,-1.040,-0.600
1386,-1.030,-0.655
1387,-1.025,-0.655
1388,-1.015,-0.610
1389,-1.015,-0.535
1390,-1.025,-0.515
1391,-1.020,-0.545
1392,-1.020,-0.595
1393,-1.025,-0.635
1394,-1.030,-0.635
1395,-1.045,-0.580
1396,-1.080,-0.560
1397,-1.085,-0.600
1398,-1.085,-0.655
1399,-1.065,-0.655
1400,-1.050,-0.630
1401,-1.035,-0.550
1402,-1.030,-0.525
1403,-1.035,-0.570
1404,-1.025,-0.615
1405,-1.015,-0.650
1406,-1.025,-0.625
1407,-1.045,-0.580
1408,-1.055,-0.550
1409,-1.065,-0.585
1410,-1.045,-0.630
1411,-1.040,-0.655
1412,-1.010,-0.615
1413,-1.020,-0.550
1414,-0.995,-0.530
1415,-0.980,-0.555
1416,-0.965,-0.615
1417,-0.950,-0.630
1418,-0.965,-0.610
1419,-0.955,-0.580
1420,-0.970,-0.560
1421,-0.955,-0.595
1422,-0.925,-0.630
1423,-0.880,-0.615
1424,-0.875,-0.575
1425,-0.855,-0.510
1426,-0.840,-0.515
1427,-0.800,-0.560
1428,-0.785,-0.585
1429,-0.765,-0.565
1430,-0.775,-0.505
1431,-0.800,-0.470
1432,-0.805,-0.505
1433,-0.790,-0.550
1434,-0.795,-0.565
1435,-0.790,-0.515
1436,-0.805,-0.475
1437,-0.805,-0.465
1438,-0.815,-0.495
1439,-0.805,-0.550
1440,-0.805,-0.585
1441,-0.820,-0.550
1442,-0.835,-0.485
1443,-0.870,-0.475
1444,-0.880,-0.515
1445,-0.880,-0.590
1446,-0.885,-0.635
1447,-0.895,-0.615
1448,-0.930,-0.565
1449,-0.950,-0.520
1450,-0.975,-0.530
1451,-0.960,-0.600
1452,-0.955,-0.625
1453,-0.970,-0.625
1454,-0.995,-0.585
1455,-1.010,-0.565
1456,-1.020,-0.570
1457,-1.035,-0.620
1458,-1.030,-0.655
1459,-1.015,-0.630
1460,-1.015,-0.575
1461,-1.020,-0.515
1462,-1.035,-0.515
1463,-1.025,-0.575
1464,-1.025,-0.645
1465,-1.000,-0.665
1466,-1.010,-0.630
1467,-1.035,-0.580
1468,-1.070,-0.570
1469,-1.085,-0.605
1470,-1.090,-0.665
1471,-1.125,-0.665
1472,-1.155,-0.620
1473,-1.205,-0.565
1474,-1.210,-0.520
1475,-1.180,-0.535
1476,-1.070,-0.555
1477,-0.920,-0.515
1478,-0.745,-0.405
1479,-0.550,-0.320
1480,-0.355,-0.270
1481,-0.170,-0.290
1482,0.025,-0.290
1483,0.210,-0.255
1484,0.380,-0.175
1485,0.510,-0.160
1486,0.600,-0.195
1487,0.650,-0.335
1488,0.685,-0.510
1489,0.670,-0.645
1490,0.625,-0.685
1491,0.550,-0.625
1492,0.465,-0.550
1493,0.355,-0.490
1494,0.170,-0.455
1495,-0.120,-0.415
1496,-0.420,-0.420
1497,-0.715,-0.425
1498,-0.905,-0.505
1499,-1.000,-0.620
1500,-1.005,-0.695
1501,-0.960,-0.710
1502,-0.915,-0.650
1503,-0.890,-0.580
1504,-0.910,-0.550
1505,-0.935,-0.585
1506,-0.975,-0.635
1507,-1.025,-0.620
1508,-1.050,-0.570
1509,-1.075,-0.525
1510,-1.090,-0.520
1511,-1.090,-0.570
1512,-1.070,-0.600
1513,-1.060,-0.615
1514,-1.065,-0.575
1515,-1.090,-0.520
1516,-1.095,-0.510
1517,-1.100,-0.530
1518,-1.080,-0.585
1519,-1.070,-0.605
1520,-1.065,-0.560
1521,-1.065,-0.490
1522,-1.050,-0.450
1523,-1.075,-0.480
1524,-1.065,-0.530
1525,-1.040,-0.570
1526,-1.035,-0.550
1527,-1.040,-0.515
1528,-1.065,-0.485
1529,-1.075,-0.505
1530,-1.075,-0.545
1531,-1.050,-0.565
1532,-1.040,-0.515
1533,-1.035,-0.440
1534,-1.055,-0.400
1535,-1.075,-0.430
1536,-1.045,-0.470
1537,-1.040,-0.530
1538,-1.045,-0.545
1539,-1.040,-0.500
1540,-1.060,-0.450
1541,-1.070,-0.445
1542,-1.060,-0.490
1543,-1.045,-0.515
1544,-1.000,-0.500
1545,-1.000,-0.420
1546,-1.035,-0.380
1547,-1.035,-0.390
1548,-1.025,-0.420
1549,-1.015,-0.465
1550,-1.005,-0.470
1551,-1.010,-0.415
1552,-1.030,-0.380
1553,-1.040,-0.380
1554,-1.040,-0.425
1555,-1.020,-0.470
1556,-0.985,-0.455
1557,-0.975,-0.400
1558,-0.965,-0.320
1559,-0.970,-0.315
1560,-0.980,-0.345
1561,-0.980,-0.390
1562,-0.960,-0.450
1563,-0.970,-0.450
1564,-0.970,-0.390
1565,-0.965,-0.350
1566,-0.965,-0.365
1567,-0.965,-0.410
1568,-0.950,-0.435
1569,-0.935,-0.395
1570,-0.915,-0.335
1571,-0.935,-0.345
1572,-0.925,-0.385
1573,-0.920,-0.440
1574,-0.930,-0.465
1575,-0.925,-0.445
1576,-0.940,-0.400
1577,-0.950,-0.430
1578,-0.935,-0.470
1579,-0.920,-0.505
1580,-0.905,-0.495
1581,-0.885,-0.450
1582,-0.900,-0.405
1583,-0.905,-0.430
1584,-0.910,-0.480
1585,-0.910,-0.535
1586,-0.885,-0.555
1587,-0.905,-0.525
1588,-0.925,-0.485
1589,-0.930,-0.490
1590,-0.945,-0.530
1591,-0.940,-0.580
1592,-0.910,-0.595
1593,-0.890,-0.540
1594,-0.920,-0.485
1595,-0.920,-0.460
1596,-0.925,-0.495
1597,-0.920,-0.570
1598,-0.925,-0.600
1599,-0.930,-0.605
1600,-0.935,-0.565
1601,-0.950,-0.520
1602,-0.965,-0.535
1603,-0.975,-0.590
1604,-0.945,-0.610
1605,-0.925,-0.595
1606,-0.925,-0.505
1607,-0.945,-0.475
1608,-0.940,-0.500
1609,-0.940,-0.555
1610,-0.945,-0.620
1611,-0.940,-0.620
1612,-0.950,-0.590
1613,-0.975,-0.540
1614,-0.985,-0.515
1615,-1.000,-0.535
1616,-0.970,-0.585
1617,-0.960,-0.595
1618,-0.950,-0.540
1619,-0.940,-0.495
1620,-0.965,-0.490
1621,-0.970,-0.540
1622,-0.970,-0.590
1623,-0.980,-0.630
1624,-0.980,-0.600
1625,-1.015,-0.540
1626,-1.030,-0.490
1627,-1.035,-0.520
1628,-1.025,-0.575
1629,-1.000,-0.605
1630,-0.995,-0.595
1631,-0.990,-0.545
1632,-1.000,-0.490
1633,-1.035,-0.490
1634,-1.040,-0.570
1635,-1.035,-0.605
1636,-1.020,-0.630
1637,-1.040,-0.600
1638,-1.020,-0.515
1639,-1.040,-0.495
1640,-1.040,-0.520
1641,-1.035,-0.575
1642,-1.005,-0.590
1643,-0.990,-0.560
1644,-1.005,-0.510
1645,-1.025,-0.495
1646,-1.025,-0.525
1647,-1.015,-0.590
1648,-1.000,-0.615
1649,-1.000,-0.590
1650,-1.000,-0.545
1651,-1.010,-0.490
1652,-0.995,-0.525
1653,-0.970,-0.565
1654,-0.935,-0.570
1655,-0.925,-0.540
1656,-0.930,-0.490
1657,-0.940,-0.480
1658,-0.945,-0.535
1659,-0.940,-0.600
1660,-0.925,-0.630
1661,-0.920,-0.595
1662,-0.905,-0.525
1663,-0.905,-0.460
1664,-0.885,-0.455
1665,-0.845,-0.520
1666,-0.805,-0.545
1667,-0.775,-0.550
1668,-0.765,-0.485
1669,-0.765,-0.430
1670,-0.770,-0.425
1671,-0.775,-0.460
1672,-0.770,-0.515
1673,-0.760,-0.515
1674,-0.745,-0.450
1675,-0.760,-0.410
1676,-0.790,-0.425
1677,-0.775,-0.450
1678,-0.770,-0.490
1679,-0.760,-0.485
1680,-0.765,-0.455
1681,-0.795,-0.405
1682,-0.830,-0.400
1683,-0.845,-0.475
1684,-0.840,-0.535
1685,-0.825,-0.550
1686,-0.830,-0.515
1687,-0.840,-0.445
1688,-0.870,-0.430
1689,-0.895,-0.440
1690,-0.900,-0.545
1691,-0.905,-0.600
1692,-0.905,-0.590
1693,-0.925,-0.535
1694,-0.950,-0.490
1695,-0.980,-0.485
1696,-1.010,-0.535
1697,-1.000,-0.605
1698,-0.995,-0.610
1699,-0.985,-0.545
1700,-0.995,-0.475
1701,-1.020,-0.450
1702,-1.020,-0.485
1703,-1.015,-0.535
1704,-1.000,-0.590
1705,-0.980,-0.580
1706,-0.970,-0.515
1707,-0.995,-0.480
1708,-1.015,-0.475
1709,-1.025,-0.530
1710,-1.030,-0.590
1711,-1.015,-0.600
1712,-1.035,-0.560
1713,-1.075,-0.470
1714,-1.120,-0.455
1715,-1.165,-0.490
1716,-1.180,-0.560
1717,-1.165,-0.560
1718,-1.100,-0.500
1719,-1.010,-0.420
1720,-0.850,-0.345
1721,-0.650,-0.315
1722,-0.430,-0.290
1723,-0.200,-0.230
1724,0.000,-0.140
1725,0.200,-0.065
1726,0.405,-0.065
1727,0.545,-0.150
1728,0.650,-0.235
1729,0.705,-0.320
1730,0.725,-0.390
1731,0.680,-0.460
1732,0.635,-0.535
1733,0.570,-0.605
1734,0.505,-0.585
1735,0.415,-0.495
1736,0.265,-0.345
1737,0.025,-0.230
1738,-0.275,-0.190
1739,-0.550,-0.315
1740,-0.750,-0.480
1741,-0.865,-0.605
1742,-0.925,-0.625
1743,-0.940,-0.600
1744,-0.920,-0.550
1745,-0.885,-0.525
1746,-0.860,-0.575
1747,-0.875,-0.560
1748,-0.875,-0.520
1749,-0.935,-0.465
1750,-0.980,-0.445
1751,-1.010,-0.470
1752,-1.030,-0.545
1753,-1.030,-0.565
1754,-1.035,-0.540
1755,-1.045,-0.500
1756,-1.055,-0.455
1757,-1.070,-0.450
1758,-1.065,-0.525
1759,-1.060,-0.540
1760,-1.045,-0.545
1761,-1.050,-0.485
1762,-1.040,-0.430
1763,-1.030,-0.375
1764,-1.035,-0.420
1765,-1.025,-0.480
1766,-1.025,-0.525
1767,-1.025,-0.480
1768,-1.035,-0.455
1769,-1.050,-0.445
1770,-1.055,-0.460
1771,-1.035,-0.490
1772,-1.010,-0.485
1773,-1.025,-0.440
1774,-1.015,-0.375
1775,-1.020,-0.365
1776,-1.025,-0.405
1777,-1.015,-0.470
1778,-1.005,-0.480
1779,-1.005,-0.445
1780,-1.015,-0.405
1781,-1.020,-0.350
1782,-1.040,-0.405
1783,-1.020,-0.435
1784,-1.015,-0.460
1785,-0.990,-0.395
1786,-0.980,-0.340
1787,-0.980,-0.315
1788,-0.985,-0.335
1789,-0.980,-0.385
1790,-0.970,-0.415
1791,-0.970,-0.380
1792,-0.990,-0.355
1793,-0.990,-0.340
1794,-0.985,-0.365
1795,-0.960,-0.385
1796,-0.945,-0.355
1797,-0.945,-0.320
1798,-0.940,-0.290
1799,-0.925,-0.325
1800,-0.925,-0.350
1801,-0.920,-0.355
1802,-0.920,-0.360
1803,-0.930,-0.315
1804,-0.945,-0.320
1805,-0.940,-0.365
1806,-0.935,-0.400
1807,-0.925,-0.380
1808,-0.915,-0.345
1809,-0.910,-0.300
1810,-0.905,-0.285
1811,-0.900,-0.350
1812,-0.885,-0.395
1813,-0.885,-0.400
1814,-0.900,-0.355
1815,-0.900,-0.340
1816,-0.920,-0.350
1817,-0.900,-0.415
1818,-0.890,-0.445
1819,-0.865,-0.435
1820,-0.860,-0.385
1821,-0.855,-0.345
1822,-0.880,-0.365
1823,-0.850,-0.420
1824,-0.825,-0.470
1825,-0.830,-0.480
1826,-0.835,-0.430
1827,-0.875,-0.395
1828,-0.885,-0.415
1829,-0.885,-0.480
1830,-0.870,-0.520
1831,-0.865,-0.540
1832,-0.865,-0.490
1833,-0.855,-0.410
1834,-0.870,-0.395
1835,-0.850,-0.415
1836,-0.860,-0.490
1837,-0.855,-0.535
1838,-0.850,-0.525
1839,-0.875,-0.460
1840,-0.885,-0.425
1841,-0.905,-0.445
1842,-0.910,-0.535
1843,-0.895,-0.545
1844,-0.870,-0.525
1845,-0.870,-0.460
1846,-0.875,-0.390
1847,-0.885,-0.405
1848,-0.885,-0.500
1849,-0.890,-0.540
1850,-0.875,-0.560
1851,-0.870,-0.535
1852,-0.900,-0.460
1853,-0.920,-0.445
1854,-0.935,-0.480
1855,-0.915,-0.520
1856,-0.905,-0.550
1857,-0.880,-0.540
1858,-0.880,-0.470
1859,-0.910,-0.415
1860,-0.915,-0.430
1861,-0.920,-0.490
1862,-0.915,-0.545
1863,-0.925,-0.555
1864,-0.955,-0.510
1865,-0.945,-0.475
1866,-0.960,-0.495
1867,-0.965,-0.515
1868,-0.960,-0.545
1869,-0.935,-0.510
1870,-0.955,-0.465
1871,-0.965,-0.445
1872,-0.990,-0.500
1873,-0.985,-0.545
1874,-0.980,-0.560
1875,-0.990,-0.515
1876,-1.005,-0.500
1877,-1.000,-0.515
1878,-1.010,-0.550
1879,-1.005,-0.570
1880,-0.995,-0.530
1881,-0.990,-0.480
1882,-0.980,-0.445
1883,-0.990,-0.490
1884,-0.985,-0.545
1885,-0.965,-0.565
1886,-0.965,-0.535
1887,-0.975,-0.500
1888,-1.000,-0.470
1889,-0.985,-0.510
1890,-0.980,-0.565
1891,-0.965,-0.570
1892,-0.950,-0.540
1893,-0.945,-0.485
1894,-0.930,-0.450
1895,-0.910,-0.475
1896,-0.905,-0.520
1897,-0.880,-0.545
1898,-0.885,-0.525
1899,-0.895,-0.495
1900,-0.910,-0.470
1901,-0.905,-0.535
1902,-0.885,-0.550
1903,-0.845,-0.555
1904,-0.810,-0.480
1905,-0.800,-0.425
1906,-0.795,-0.410
1907,-0.760,-0.455
1908,-0.750,-0.505
1909,-0.720,-0.510
1910,-0.710,-0.470
1911,-0.700,-0.405
1912,-0.710,-0.405
1913,-0.715,-0.435
1914,-0.705,-0.485
1915,-0.710,-0.485
1916,-0.715,-0.430
1917,-0.720,-0.375
1918,-0.735,-0.370
1919,-0.750,-0.400
1920,-0.750,-0.450
1921,-0.745,-0.490
1922,-0.755,-0.460
1923,-0.770,-0.410
1924,-0.795,-0.425
1925,-0.795,-0.455
1926,-0.800,-0.510
1927,-0.815,-0.505
1928,-0.805,-0.490
1929,-0.840,-0.450
1930,-0.850,-0.440
1931,-0.875,-0.485
1932,-0.895,-0.545
1933,-0.885,-0.560
1934,-0.900,-0.535
1935,-0.915,-0.490
1936,-0.935,-0.475
1937,-0.935,-0.515
1938,-0.940,-0.535
1939,-0.930,-0.540
1940,-0.945,-0.495
1941,-0.940,-0.465
1942,-0.935,-0.490
1943,-0.925,-0.525
1944,-0.925,-0.515
1945,-0.940,-0.495
1946,-0.955,-0.485
1947,-0.965,-0.485
1948,-0.985,-0.560
1949,-1.015,-0.590
1950,-1.075,-0.575
1951,-1.110,-0.515
1952,-1.160,-0.480
1953,-1.150,-0.470
1954,-1.070,-0.490
1955,-0.960,-0.500
1956,-0.825,-0.395
1957,-0.645,-0.300
1958,-0.445,-0.210
1959,-0.250,-0.195
1960,-0.060,-0.205
1961,0.120,-0.205
1962,0.290,-0.145
1963,0.470,-0.100
1964,0.605,-0.095
1965,0.710,-0.165
1966,0.765,-0.305
1967,0.770,-0.455
1968,0.725,-0.530
1969,0.665,-0.510
1970,0.580,-0.470
1971,0.485,-0.460
1972,0.330,-0.420
1973,0.075,-0.380
1974,-0.205,-0.325
1975,-0.500,-0.315
1976,-0.715,-0.380
1977,-0.830,-0.470
1978,-0.885,-0.585
1979,-0.850,-0.640
1980,-0.810,-0.600
1981,-0.780,-0.520
1982,-0.770,-0.460
1983,-0.800,-0.430
1984,-0.840,-0.500
1985,-0.880,-0.560
1986,-0.925,-0.575
1987,-0.955,-0.525
1988,-0.980,-0.475
1989,-0.995,-0.455
1990,-1.015,-0.475
1991,-1.005,-0.520
1992,-0.985,-0.530
1993,-0.990,-0.495
1994,-0.985,-0.450
1995,-1.000,-0.430
1996,-1.010,-0.470
1997,-1.015,-0.530
1998,-1.010,-0.560
1999,-0.990,-0.540
2000,-0.970,-0.465
2001,-0.990,-0.400
2002,-0.975,-0.375
2003,-0.965,-0.415
2004,-0.950,-0.485
2005,-0.950,-0.480
2006,-0.960,-0.460
2007,-0.975,-0.410
2008,-0.990,-0.405
2009,-0.990,-0.465
2010,-0.980,-0.470
2011,-0.970,-0.460
2012,-0.975,-0.430
2013,-0.985,-0.390
2014,-0.985,-0.400
2015,-0.945,-0.435
2016,-0.950,-0.440
2017,-0.950,-0.390
2018,-0.960,-0.365
2019,-0.970,-0.385
2020,-0.975,-0.420
2021,-0.965,-0.465
2022,-0.940,-0.450
2023,-0.950,-0.385
2024,-0.945,-0.315
2025,-0.960,-0.305
2026,-0.940,-0.350
2027,-0.915,-0.395
2028,-0.900,-0.400
2029,-0.915,-0.345
2030,-0.920,-0.310
2031,-0.940,-0.310
2032,-0.930,-0.350
2033,-0.945,-0.395
2034,-0.940,-0.405
2035,-0.930,-0.350
2036,-0.925,-0.295
2037,-0.910,-0.280
2038,-0.915,-0.295
2039,-0.910,-0.340
2040,-0.880,-0.370
2041,-0.870,-0.325
2042,-0.880,-0.295
2043,-0.895,-0.280
2044,-0.895,-0.340
2045,-0.885,-0.390
2046,-0.875,-0.410
2047,-0.875,-0.385
2048,-0.865,-0.300
2049,-0.865,-0.270
2050,-0.850,-0.280
2051,-0.830,-0.350
2052,-0.820,-0.395
2053,-0.830,-0.375
2054,-0.835,-0.345
2055,-0.845,-0.330
2056,-0.850,-0.370
2057,-0.840,-0.425
2058,-0.830,-0.455
2059,-0.815,-0.420
2060,-0.835,-0.380
2061,-0.840,-0.325
2062,-0.845,-0.370
2063,-0.825,-0.420
2064,-0.810,-0.465
2065,-0.810,-0.460
2066,-0.815,-0.415
2067,-0.850,-0.395
2068,-0.860,-0.420
2069,-0.870,-0.495
2070,-0.870,-0.535
2071,-0.845,-0.525
2072,-0.845,-0.485
2073,-0.830,-0.420
2074,-0.860,-0.395
2075,-0.855,-0.430
2076,-0.840,-0.500
2077,-0.840,-0.530
2078,-0.850,-0.515
2079,-0.870,-0.465
2080,-0.885,-0.460
2081,-0.875,-0.500
2082,-0.875,-0.545
2083,-0.885,-0.525
2084,-0.875,-0.495
2085,-0.860,-0.440
2086,-0.865,-0.450
2087,-0.860,-0.480
2088,-0.865,-0.525
2089,-0.850,-0.520
2090,-0.865,-0.495
2091,-0.880,-0.475
2092,-0.885,-0.490
2093,-0.895,-0.550
2094,-0.885,-0.550
2095,-0.885,-0.525
2096,-0.895,-0.475
2097,-0.915,-0.450
2098,-0.895,-0.475
2099,-0.890,-0.520
2100,-0.880,-0.550
2101,-0.890,-0.530
2102,-0.930,-0.485
2103,-0.940,-0.450
2104,-0.960,-0.475
2105,-0.960,-0.550
2106,-0.975,-0.570
2107,-0.950,-0.570
2108,-0.960,-0.505
2109,-0.970,-0.450
2110,-0.975,-0.450
2111,-0.975,-0.485
2112,-0.970,-0.550
2113,-0.955,-0.545
2114,-0.955,-0.530
2115,-0.965,-0.500
2116,-0.990,-0.505
2117,-0.980,-0.560
2118,-0.975,-0.590
2119,-0.960,-0.575
2120,-0.950,-0.520
2121,-0.950,-0.470
2122,-0.960,-0.455
2123,-0.945,-0.505
2124,-0.955,-0.570
2125,-0.940,-0.580
2126,-0.925,-0.555
2127,-0.925,-0.505
2128,-0.945,-0.470
2129,-0.975,-0.505
2130,-0.955,-0.550
2131,-0.945,-0.580
2132,-0.915,-0.540
2133,-0.895,-0.480
2134,-0.885,-0.425
2135,-0.880,-0.415
2136,-0.860,-0.480
2137,-0.855,-0.530
2138,-0.845,-0.540
2139,-0.860,-0.500
2140,-0.890,-0.470
2141,-0.885,-0.460
2142,-0.885,-0.505
2143,-0.840,-0.540
2144,-0.805,-0.525
2145,-0.770,-0.485
2146,-0.745,-0.440
2147,-0.745,-0.395
2148,-0.725,-0.440
2149,-0.705,-0.480
2150,-0.690,-0.500
2151,-0.705,-0.460
2152,-0.715,-0.400
2153,-0.725,-0.390
2154,-0.725,-0.415
2155,-0.715,-0.470
2156,-0.705,-0.490
2157,-0.700,-0.440
2158,-0.715,-0.385
2159,-0.715,-0.385
2160,-0.735,-0.425
2161,-0.740,-0.465
2162,-0.740,-0.460
2163,-0.770,-0.440
2164,-0.780,-0.430
2165,-0.795,-0.460
2166,-0.810,-0.515
2167,-0.825,-0.520
2168,-0.830,-0.485
2169,-0.850,-0.450
2170,-0.885,-0.450
2171,-0.885,-0.510
2172,-0.885,-0.560
2173,-0.880,-0.565
2174,-0.890,-0.510
2175,-0.940,-0.470
2176,-0.970,-0.465
2177,-0.960,-0.505
2178,-0.950,-0.575
2179,-0.945,-0.580
2180,-0.935,-0.535
2181,-0.925,-0.460
2182,-0.950,-0.420
2183,-0.935,-0.470
2184,-0.940,-0.520
2185,-0.920,-0.555
2186,-0.925,-0.540
2187,-0.970,-0.500
2188,-0.990,-0.505
2189,-1.015,-0.540
2190,-1.035,-0.575
2191,-1.075,-0.580
2192,-1.120,-0.540
2193,-1.120,-0.485
2194,-1.105,-0.430
2195,-1.025,-0.435
2196,-0.920,-0.425
2197,-0.755,-0.410
2198,-0.585,-0.330
2199,-0.415,-0.230
2200,-0.260,-0.155
2201,-0.105,-0.110
2202,0.040,-0.140
2203,0.205,-0.155
2204,0.390,-0.135
2205,0.530,-0.105
2206,0.645,-0.070
2207,0.710,-0.115
2208,0.735,-0.275
2209,0.735,-0.445
2210,0.705,-0.575
2211,0.635,-0.565
2212,0.555,-0.485
2213,0.460,-0.405
2214,0.325,-0.345
2215,0.125,-0.320
2216,-0.100,-0.335
2217,-0.370,-0.350
2218,-0.600,-0.385
2219,-0.765,-0.405
2220,-0.860,-0.475
2221,-0.865,-0.570
2222,-0.840,-0.635
2223,-0.800,-0.615
2224,-0.775,-0.550
2225,-0.785,-0.480
2226,-0.820,-0.445
2227,-0.880,-0.465
2228,-0.920,-0.530
2229,-0.930,-0.545
2230,-0.960,-0.515
2231,-0.990,-0.465
2232,-0.990,-0.465
2233,-1.015,-0.470
2234,-1.000,-0.520
2235,-0.990,-0.530
2236,-1.005,-0.525
2237,-1.010,-0.475
2238,-1.010,-0.485
2239,-1.015,-0.515
2240,-1.000,-0.545
2241,-0.960,-0.520
2242,-0.950,-0.455
2243,-0.955,-0.405
2244,-0.950,-0.435
2245,-0.960,-0.485
2246,-0.960,-0.540
2247,-0.970,-0.540
2248,-1.000,-0.490
2249,-1.005,-0.440
2250,-1.010,-0.440
2251,-0.995,-0.485
2252,-0.980,-0.510
2253,-0.940,-0.485
2254,-0.955,-0.430
2255,-0.950,-0.380
2256,-0.970,-0.380
2257,-0.980,-0.405
2258,-0.960,-0.490
2259,-0.960,-0.510
2260,-0.940,-0.450
2261,-0.950,-0.415
2262,-0.975,-0.385
2263,-0.970,-0.420
2264,-0.955,-0.455
2265,-0.925,-0.460
2266,-0.925,-0.410
2267,-0.920,-0.335
2268,-0.935,-0.295
2269,-0.935,-0.330
2270,-0.940,-0.415
2271,-0.925,-0.460
2272,-0.935,-0.440
2273,-0.945,-0.385
2274,-0.950,-0.315
2275,-0.940,-0.305
2276,-0.930,-0.355
2277,-0.915,-0.385
2278,-0.885,-0.375
2279,-0.875,-0.315
2280,-0.885,-0.275
2281,-0.875,-0.270
2282,-0.890,-0.350
2283,-0.895,-0.390
2284,-0.890,-0.410
2285,-0.900,-0.370
2286,-0.910,-0.310
2287,-0.910,-0.290
2288,-0.895,-0.345
2289,-0.885,-0.380
2290,-0.845,-0.395
2291,-0.830,-0.340
2292,-0.845,-0.280
2293,-0.850,-0.275
2294,-0.850,-0.340
2295,-0.855,-0.405
2296,-0.835,-0.455
2297,-0.830,-0.415
2298,-0.840,-0.355
2299,-0.855,-0.325
2300,-0.865,-0.335
2301,-0.835,-0.390
2302,-0.820,-0.425
2303,-0.795,-0.415
2304,-0.810,-0.365
2305,-0.825,-0.365
2306,-0.830,-0.425
2307,-0.820,-0.480
2308,-0.805,-0.470
2309,-0.840,-0.450
2310,-0.850,-0.425
2311,-0.850,-0.430
2312,-0.840,-0.485
2313,-0.820,-0.500
2314,-0.810,-0.460
2315,-0.825,-0.410
2316,-0.835,-0.415
2317,-0.840,-0.450
2318,-0.850,-0.510
2319,-0.860,-0.535
2320,-0.855,-0.500
2321,-0.875,-0.465
2322,-0.880,-0.460
2323,-0.880,-0.480
2324,-0.860,-0.540
2325,-0.845,-0.530
2326,-0.845,-0.475
2327,-0.855,-0.415
2328,-0.865,-0.415
2329,-0.865,-0.480
2330,-0.865,-0.545
2331,-0.860,-0.555
2332,-0.870,-0.525
2333,-0.890,-0.480
2334,-0.910,-0.460
2335,-0.895,-0.510
2336,-0.890,-0.545
2337,-0.870,-0.515
2338,-0.880,-0.470
2339,-0.890,-0.435
2340,-0.895,-0.470
2341,-0.915,-0.510
2342,-0.900,-0.550
2343,-0.925,-0.535
2344,-0.935,-0.495
2345,-0.950,-0.485
2346,-0.960,-0.510
2347,-0.950,-0.560
2348,-0.960,-0.585
2349,-0.940,-0.520
2350,-0.940,-0.470
2351,-0.940,-0.450
2352,-0.945,-0.475
2353,-0.945,-0.540
2354,-0.950,-0.570
2355,-0.945,-0.560
2356,-0.960,-0.505
2357,-0.990,-0.490
2358,-0.980,-0.510
2359,-0.970,-0.560
2360,-0.950,-0.580
2361,-0.935,-0.550
2362,-0.935,-0.470
2363,-0.935,-0.450
2364,-0.955,-0.460
2365,-0.955,-0.525
2366,-0.950,-0.575
2367,-0.935,-0.565
2368,-0.940,-0.510
2369,-0.935,-0.475
2370,-0.940,-0.500
2371,-0.945,-0.535
2372,-0.905,-0.555
2373,-0.900,-0.525
2374,-0.900,-0.475
2375,-0.890,-0.465
2376,-0.875,-0.495
2377,-0.870,-0.540
2378,-0.850,-0.545
2379,-0.850,-0.520
2380,-0.850,-0.505
2381,-0.855,-0.520
2382,-0.855,-0.545
2383,-0.830,-0.540
2384,-0.800,-0.475
2385,-0.775,-0.435
2386,-0.750,-0.455
2387,-0.730,-0.485
2388,-0.675,-0.505
2389,-0.670,-0.455
2390,-0.670,-0.400
2391,-0.695,-0.380
2392,-0.685,-0.435
2393,-0.700,-0.470
2394,-0.680,-0.515
2395,-0.670,-0.455
2396,-0.680,-0.390
2397,-0.700,-0.360
2398,-0.690,-0.385
2399,-0.705,-0.440
2400,-0.705,-0.475
2401,-0.710,-0.435
2402,-0.720,-0.405
2403,-0.745,-0.405
2404,-0.755,-0.455
2405,-0.755,-0.510
2406,-0.755,-0.520
2407,-0.780,-0.490
2408,-0.810,-0.450
2409,-0.835,-0.470
2410,-0.840,-0.510
2411,-0.835,-0.550
2412,-0.835,-0.565
2413,-0.845,-0.505
2414,-0.860,-0.445
2415,-0.890,-0.440
2416,-0.905,-0.495
2417,-0.915,-0.565
2418,-0.910,-0.600
2419,-0.905,-0.545
2420,-0.920,-0.490
2421,-0.920,-0.430
2422,-0.900,-0.455
2423,-0.895,-0.510
2424,-0.890,-0.550
2425,-0.875,-0.535
2426,-0.895,-0.485
2427,-0.920,-0.470
2428,-0.945,-0.495
2429,-0.965,-0.555
2430,-0.985,-0.585
2431,-1.005,-0.565
2432,-1.055,-0.505
2433,-1.100,-0.465
2434,-1.105,-0.475
2435,-1.060,-0.515
2436,-0.985,-0.495
2437,-0.840,-0.410
2438,-0.690,-0.285
2439,-0.500,-0.210
2440,-0.300,-0.190
2441,-0.105,-0.185
2442,0.105,-0.175
2443,0.295,-0.120
2444,0.455,-0.045
2445,0.620,-0.055
2446,0.705,-0.125
2447,0.775,-0.280
2448,0.795,-0.400
2449,0.750,-0.475
2450,0.685,-0.475
2451,0.575,-0.465
2452,0.455,-0.440
2453,0.275,-0.390
2454,0.005,-0.320
2455,-0.310,-0.290
2456,-0.580,-0.340
2457,-0.775,-0.475
2458,-0.865,-0.585
2459,-0.845,-0.615
2460,-0.815,-0.600
2461,-0.790,-0.520
2462,-0.770,-0.475
2463,-0.780,-0.505
2464,-0.800,-0.545
2465,-0.845,-0.590
2466,-0.885,-0.555
2467,-0.935,-0.515
2468,-0.975,-0.475
2469,-0.975,-0.505
2470,-0.970,-0.540
2471,-0.945,-0.550
2472,-0.960,-0.510
2473,-0.965,-0.455
2474,-0.970,-0.445
2475,-0.985,-0.485
2476,-0.980,-0.550
2477,-0.985,-0.570
2478,-0.975,-0.535
2479,-0.965,-0.470
2480,-0.960,-0.425
2481,-0.960,-0.440
2482,-0.940,-0.485
2483,-0.930,-0.495
2484,-0.920,-0.475
2485,-0.920,-0.425
2486,-0.945,-0.395
2487,-0.955,-0.450
2488,-0.965,-0.510
2489,-0.950,-0.520
2490,-0.950,-0.495
2491,-0.955,-0.450
2492,-0.945,-0.390
2493,-0.950,-0.420
2494,-0.920,-0.455
2495,-0.905,-0.475
2496,-0.895,-0.445
2497,-0.900,-0.405
2498,-0.920,-0.400
2499,-0.940,-0.415
2500,-0.945,-0.470
2501,-0.935,-0.485
2502,-0.920,-0.435
2503,-0.920,-0.375
2504,-0.930,-0.350
2505,-0.935,-0.355
2506,-0.925,-0.395
2507,-0.900,-0.420
2508,-0.890,-0.375
2509,-0.890,-0.325
2510,-0.895,-0.300
2511,-0.915,-0.345
2512,-0.900,-0.400
2513,-0.895,-0.415
2514,-0.890,-0.390
2515,-0.900,-0.335
2516,-0.905,-0.300
2517,-0.890,-0.330
2518,-0.870,-0.365
2519,-0.850,-0.360
2520,-0.845,-0.330
2521,-0.860,-0.295
2522,-0.870,-0.295
2523,-0.885,-0.335
2524,-0.850,-0.400
2525,-0.855,-0.405
2526,-0.860,-0.355
2527,-0.850,-0.335
2528,-0.860,-0.330
2529,-0.850,-0.380
2530,-0.850,-0.400
2531,-0.815,-0.380
2532,-0.825,-0.330
2533,-0.830,-0.340
2534,-0.835,-0.375
2535,-0.840,-0.445
2536,-0.825,-0.455
2537,-0.815,-0.425
2538,-0.835,-0.395
2539,-0.825,-0.380
2540,-0.840,-0.395
2541,-0.815,-0.465
2542,-0.800,-0.495
2543,-0.775,-0.470
2544,-0.790,-0.410
2545,-0.810,-0.375
2546,-0.830,-0.410
2547,-0.860,-0.485
2548,-0.840,-0.565
2549,-0.815,-0.580
2550,-0.820,-0.510
2551,-0.860,-0.445
2552,-0.855,-0.410
2553,-0.850,-0.450
2554,-0.840,-0.515
2555,-0.810,-0.510
2556,-0.795,-0.490
2557,-0.825,-0.440
2558,-0.845,-0.430
2559,-0.865,-0.475
2560,-0.860,-0.545
2561,-0.840,-0.590
2562,-0.850,-0.570
2563,-0.845,-0.500
2564,-0.860,-0.455
2565,-0.865,-0.445
2566,-0.850,-0.505
2567,-0.830,-0.545
2568,-0.815,-0.535
2569,-0.825,-0.495
2570,-0.855,-0.455
2571,-0.875,-0.460
2572,-0.885,-0.535
2573,-0.885,-0.565
2574,-0.880,-0.595
2575,-0.880,-0.540
2576,-0.870,-0.475
2577,-0.885,-0.450
2578,-0.885,-0.490
2579,-0.875,-0.530
2580,-0.865,-0.555
2581,-0.870,-0.520
2582,-0.885,-0.480
2583,-0.910,-0.465
2584,-0.925,-0.490
2585,-0.935,-0.555
2586,-0.945,-0.610
2587,-0.940,-0.575
2588,-0.960,-0.515
2589,-0.955,-0.460
2590,-0.950,-0.465
2591,-0.935,-0.515
2592,-0.935,-0.565
2593,-0.930,-0.575
2594,-0.940,-0.535
2595,-0.975,-0.495
2596,-0.995,-0.505
2597,-0.980,-0.555
2598,-0.975,-0.600
2599,-0.960,-0.575
2600,-0.945,-0.520
2601,-0.955,-0.485
2602,-0.945,-0.490
2603,-0.940,-0.520
2604,-0.930,-0.565
2605,-0.905,-0.545
2606,-0.915,-0.490
2607,-0.940,-0.470
2608,-0.935,-0.520
2609,-0.940,-0.570
2610,-0.925,-0.590
2611,-0.920,-0.570
2612,-0.910,-0.505
2613,-0.915,-0.440
2614,-0.935,-0.455
2615,-0.920,-0.510
2616,-0.900,-0.575
2617,-0.875,-0.575
2618,-0.880,-0.540
2619,-0.865,-0.485
2620,-0.885,-0.485
2621,-0.885,-0.555
2622,-0.880,-0.580
2623,-0.875,-0.595
2624,-0.860,-0.540
2625,-0.845,-0.475
2626,-0.830,-0.485
2627,-0.815,-0.510
2628,-0.780,-0.540
2629,-0.755,-0.540
2630,-0.710,-0.490
2631,-0.720,-0.465
2632,-0.735,-0.440
2633,-0.730,-0.495
2634,-0.730,-0.545
2635,-0.695,-0.515
2636,-0.680,-0.460
2637,-0.690,-0.390
2638,-0.700,-0.375
2639,-0.690,-0.415
2640,-0.665,-0.480
2641,-0.670,-0.495
2642,-0.700,-0.470
2643,-0.725,-0.435
2644,-0.770,-0.440
2645,-0.770,-0.460
2646,-0.760,-0.520
2647,-0.755,-0.525
2648,-0.765,-0.470
2649,-0.750,-0.425
2650,-0.775,-0.445
2651,-0.800,-0.490
2652,-0.825,-0.555
2653,-0.845,-0.565
2654,-0.860,-0.535
2655,-0.880,-0.505
2656,-0.910,-0.500
2657,-0.910,-0.540
2658,-0.915,-0.600
2659,-0.905,-0.615
2660,-0.905,-0.550
2661,-0.910,-0.490
2662,-0.940,-0.455
2663,-0.940,-0.500
2664,-0.925,-0.575
2665,-0.915,-0.605
2666,-0.925,-0.580
2667,-0.925,-0.540
2668,-0.940,-0.535
2669,-0.940,-0.580
2670,-0.950,-0.610
2671,-0.945,-0.620
2672,-0.945,-0.570
2673,-0.980,-0.530
2674,-1.015,-0.530
2675,-1.040,-0.560
2676,-1.080,-0.610
2677,-1.095,-0.595
2678,-1.080,-0.535
2679,-1.020,-0.465
2680,-0.920,-0.425
2681,-0.765,-0.425
2682,-0.560,-0.405
2683,-0.350,-0.350
2684,-0.175,-0.245
2685,0.015,-0.135
2686,0.175,-0.085
2687,0.315,-0.105
2688,0.475,-0.140
2689,0.605,-0.195
2690,0.700,-0.225
2691,0.760,-0.270
2692,0.750,-0.335
2693,0.725,-0.470
2694,0.675,-0.600
2695,0.645,-0.620
2696,0.565,-0.560
2697,0.470,-0.425
2698,0.270,-0.300
2699,-0.005,-0.275
2700,-0.310,-0.370
2701,-0.555,-0.480
2702,-0.730,-0.550
2703,-0.850,-0.570
2704,-0.905,-0.565
2705,-0.865,-0.605
2706,-0.830,-0.630
2707,-0.780,-0.630
2708,-0.765,-0.585
2709,-0.770,-0.505
2710,-0.830,-0.465
2711,-0.905,-0.450
2712,-0.925,-0.520
2713,-0.950,-0.595
2714,-0.955,-0.605
2715,-0.975,-0.560
2716,-1.010,-0.525
2717,-1.020,-0.510
2718,-1.030,-0.540
2719,-1.015,-0.595
2720,-1.005,-0.590
2721,-1.000,-0.530
2722,-0.985,-0.470
2723,-0.990,-0.435
2724,-0.990,-0.475
2725,-0.980,-0.545
2726,-0.970,-0.575
2727,-0.980,-0.530
2728,-0.985,-0.465
2729,-0.990,-0.445
2730,-1.005,-0.495
2731,-0.985,-0.560
2732,-0.980,-0.575
2733,-0.965,-0.530
2734,-0.945,-0.445
2735,-0.970,-0.420
2736,-0.970,-0.440
2737,-0.960,-0.495
2738,-0.945,-0.525
2739,-0.965,-0.495
2740,-0.960,-0.455
2741,-0.985,-0.425
2742,-0.995,-0.480
2743,-0.975,-0.535
2744,-0.960,-0.500
2745,-0.940,-0.465
2746,-0.945,-0.395
2747,-0.935,-0.390
2748,-0.935,-0.425
2749,-0.925,-0.465
2750,-0.905,-0.445
2751,-0.940,-0.415
2752,-0.950,-0.380
2753,-0.960,-0.430
2754,-0.975,-0.460
2755,-0.950,-0.465
2756,-0.935,-0.430
2757,-0.930,-0.365
2758,-0.920,-0.340
2759,-0.920,-0.345
2760,-0.910,-0.400
2761,-0.880,-0.440
2762,-0.870,-0.405
2763,-0.865,-0.365
2764,-0.905,-0.340
2765,-0.915,-0.355
2766,-0.925,-0.430
2767,-0.920,-0.465
2768,-0.890,-0.445
2769,-0.885,-0.395
2770,-0.875,-0.345
2771,-0.885,-0.345
2772,-0.870,-0.395
2773,-0.855,-0.445
2774,-0.845,-0.420
2775,-0.865,-0.390
2776,-0.890,-0.375
2777,-0.890,-0.410
2778,-0.880,-0.440
2779,-0.865,-0.495
2780,-0.860,-0.470
2781,-0.855,-0.395
2782,-0.850,-0.360
2783,-0.840,-0.390
2784,-0.830,-0.455
2785,-0.830,-0.515
2786,-0.815,-0.505
2787,-0.820,-0.480
2788,-0.840,-0.435
2789,-0.860,-0.450
2790,-0.865,-0.520
2791,-0.865,-0.570
2792,-0.840,-0.570
2793,-0.825,-0.520
2794,-0.825,-0.455
2795,-0.830,-0.445
2796,-0.840,-0.500
2797,-0.850,-0.560
2798,-0.840,-0.560
2799,-0.850,-0.540
2800,-0.865,-0.500
2801,-0.880,-0.500
2802,-0.885,-0.550
2803,-0.880,-0.610
2804,-0.865,-0.595
2805,-0.875,-0.545
2806,-0.880,-0.495
2807,-0.890,-0.485
2808,-0.870,-0.555
2809,-0.870,-0.590
2810,-0.855,-0.600
2811,-0.865,-0.545
2812,-0.885,-0.505
2813,-0.900,-0.530
2814,-0.910,-0.580
2815,-0.900,-0.630
2816,-0.880,-0.605
2817,-0.905,-0.540
2818,-0.905,-0.495
2819,-0.915,-0.530
2820,-0.900,-0.570
2821,-0.890,-0.600
2822,-0.910,-0.575
2823,-0.925,-0.550
2824,-0.940,-0.550
2825,-0.955,-0.595
2826,-0.950,-0.640
2827,-0.960,-0.635
2828,-0.940,-0.575
2829,-0.960,-0.520
2830,-0.965,-0.510
2831,-0.985,-0.550
2832,-0.950,-0.610
2833,-0.950,-0.600
2834,-0.955,-0.590
2835,-0.975,-0.535
2836,-0.985,-0.535
2837,-1.000,-0.580
2838,-1.000,-0.640
2839,-0.985,-0.675
2840,-0.985,-0.620
2841,-0.970,-0.550
2842,-0.985,-0.515
2843,-0.990,-0.550
2844,-0.975,-0.600
2845,-0.970,-0.620
2846,-0.960,-0.600
2847,-0.965,-0.555
2848,-0.980,-0.545
2849,-1.000,-0.585
2850,-1.010,-0.630
2851,-0.980,-0.665
2852,-0.975,-0.625
2853,-0.965,-0.565
2854,-0.955,-0.510
2855,-0.965,-0.525
2856,-0.950,-0.580
2857,-0.925,-0.635
2858,-0.920,-0.625
2859,-0.925,-0.565
2860,-0.940,-0.530
2861,-0.955,-0.550
2862,-0.940,-0.615
2863,-0.915,-0.630
2864,-0.895,-0.610
2865,-0.880,-0.550
2866,-0.875,-0.510
2867,-0.865,-0.530
2868,-0.885,-0.585
2869,-0.855,-0.605
2870,-0.840,-0.580
2871,-0.825,-0.540
2872,-0.830,-0.520
2873,-0.825,-0.555
2874,-0.800,-0.605
2875,-0.765,-0.615
2876,-0.740,-0.580
2877,-0.720,-0.500
2878,-0.700,-0.450
2879,-0.700,-0.455
2880,-0.695,-0.505
2881,-0.680,-0.525
2882,-0.675,-0.505
2883,-0.710,-0.460
2884,-0.740,-0.470
2885,-0.770,-0.520
2886,-0.780,-0.555
2887,-0.750,-0.560
2888,-0.745,-0.505
2889,-0.755,-0.480
2890,-0.770,-0.490
2891,-0.750,-0.530
2892,-0.745,-0.530
2893,-0.770,-0.515
2894,-0.810,-0.495
2895,-0.850,-0.515
2896,-0.875,-0.600
2897,-0.880,-0.650
2898,-0.890,-0.635
2899,-0.910,-0.585
2900,-0.925,-0.535
2901,-0.930,-0.535
2902,-0.905,-0.575
2903,-0.905,-0.605
2904,-0.890,-0.595
2905,-0.910,-0.540
2906,-0.920,-0.515
2907,-0.950,-0.535
2908,-0.960,-0.595
2909,-0.950,-0.640
2910,-0.940,-0.635
2911,-0.940,-0.600
2912,-0.960,-0.540
2913,-0.970,-0.550
2914,-0.960,-0.585
2915,-0.945,-0.620
2916,-0.960,-0.610
2917,-0.995,-0.565
2918,-1.045,-0.550
2919,-1.100,-0.555
2920,-1.155,-0.615
2921,-1.145,-0.645
2922,-1.100,-0.610
2923,-1.025,-0.515
2924,-0.895,-0.410
2925,-0.745,-0.320
2926,-0.565,-0.310
2927,-0.340,-0.315
2928,-0.140,-0.275
2929,0.055,-0.175
2930,0.220,-0.095
2931,0.360,-0.085
2932,0.485,-0.125
2933,0.615,-0.235
2934,0.715,-0.335
2935,0.760,-0.390
2936,0.750,-0.435
2937,0.710,-0.510
2938,0.665,-0.565
2939,0.605,-0.585
2940,0.535,-0.535
2941,0.390,-0.405
2942,0.150,-0.290
2943,-0.150,-0.280
2944,-0.450,-0.395
2945,-0.680,-0.555
2946,-0.830,-0.670
2947,-0.875,-0.695
2948,-0.870,-0.635
2949,-0.830,-0.545
2950,-0.795,-0.530
2951,-0.765,-0.550
2952,-0.750,-0.585
2953,-0.785,-0.605
2954,-0.835,-0.570
2955,-0.905,-0.535
2956,-0.960,-0.540
2957,-0.990,-0.595
2958,-1.010,-0.630
2959,-1.010,-0.640
2960,-1.010,-0.585
2961,-1.005,-0.520
2962,-1.020,-0.520
2963,-1.010,-0.560
2964,-0.995,-0.590
2965,-0.985,-0.555
2966,-0.980,-0.515
2967,-0.990,-0.485
2968,-0.990,-0.515
2969,-1.005,-0.590
2970,-1.000,-0.635
2971,-1.005,-0.615
2972,-1.005,-0.550
2973,-1.000,-0.485
2974,-1.010,-0.500
2975,-1.010,-0.540
2976,-0.990,-0.580
2977,-0.970,-0.570
2978,-0.965,-0.515
2979,-0.980,-0.480
2980,-1.000,-0.480
2981,-1.000,-0.530
2982,-0.985,-0.585
2983,-0.985,-0.595
2984,-0.965,-0.535
2985,-0.960,-0.465
2986,-0.975,-0.430
2987,-0.970,-0.470
2988,-0.965,-0.505
2989,-0.955,-0.545
2990,-0.945,-0.520
2991,-0.955,-0.450
2992,-0.975,-0.410
2993,-0.975,-0.450
2994,-0.970,-0.495
2995,-0.960,-0.535
2996,-0.950,-0.515
2997,-0.940,-0.430
2998,-0.950,-0.375
2999,-0.950,-0.360
3000,-0.935,-0.410
3001,-0.905,-0.480
3002,-0.905,-0.465
3003,-0.905,-0.410
3004,-0.920,-0.380
3005,-0.940,-0.375
3006,-0.925,-0.420
3007,-0.925,-0.475
3008,-0.900,-0.450
3009,-0.905,-0.385
3010,-0.910,-0.335
3011,-0.900,-0.340
3012,-0.895,-0.400
3013,-0.880,-0.430
3014,-0.885,-0.440
3015,-0.890,-0.400
3016,-0.910,-0.385
3017,-0.920,-0.410
3018,-0.895,-0.470
3019,-0.900,-0.500
3020,-0.870,-0.480
3021,-0.865,-0.400
3022,-0.870,-0.370
3023,-0.885,-0.380
3024,-0.855,-0.430
3025,-0.840,-0.495
3026,-0.840,-0.510
3027,-0.845,-0.450
3028,-0.855,-0.425
3029,-0.890,-0.450
3030,-0.885,-0.510
3031,-0.875,-0.545
3032,-0.875,-0.540
3033,-0.860,-0.490
3034,-0.860,-0.435
3035,-0.860,-0.435
3036,-0.845,-0.495
3037,-0.850,-0.560
3038,-0.855,-0.535
3039,-0.850,-0.520
3040,-0.880,-0.485
3041,-0.890,-0.500
3042,-0.905,-0.565
3043,-0.890,-0.595
3044,-0.890,-0.575
3045,-0.875,-0.535
3046,-0.885,-0.500
3047,-0.895,-0.500
3048,-0.890,-0.560
3049,-0.865,-0.590
3050,-0.890,-0.580
3051,-0.900,-0.545
3052,-0.900,-0.495
3053,-0.915,-0.520
3054,-0.910,-0.585
3055,-0.910,-0.635
3056,-0.905,-0.635
3057,-0.880,-0.555
3058,-0.895,-0.505
3059,-0.925,-0.475
3060,-0.930,-0.515
3061,-0.925,-0.575
3062,-0.915,-0.620
3063,-0.900,-0.605
3064,-0.915,-0.555
3065,-0.935,-0.555
3066,-0.930,-0.580
3067,-0.940,-0.630
3068,-0.930,-0.625
3069,-0.930,-0.580
3070,-0.930,-0.525
3071,-0.945,-0.485
3072,-0.950,-0.535
3073,-0.955,-0.605
3074,-0.950,-0.640
3075,-0.955,-0.615
3076,-0.975,-0.570
3077,-0.995,-0.555
3078,-1.005,-0.600
3079,-1.000,-0.640
3080,-0.990,-0.660
3081,-0.980,-0.625
3082,-0.990,-0.550
3083,-0.990,-0.530
3084,-0.975,-0.575
3085,-0.985,-0.625
3086,-0.995,-0.640
3087,-0.975,-0.610
3088,-1.000,-0.570
3089,-1.015,-0.565
3090,-1.015,-0.630
3091,-1.000,-0.665
3092,-0.970,-0.645
3093,-0.955,-0.600
3094,-0.955,-0.565
3095,-0.965,-0.545
3096,-0.960,-0.595
3097,-0.950,-0.660
3098,-0.935,-0.660
3099,-0.930,-0.630
3100,-0.965,-0.585
3101,-0.975,-0.570
3102,-0.975,-0.620
3103,-0.970,-0.670
3104,-0.965,-0.670
3105,-0.955,-0.595
3106,-0.950,-0.560
3107,-0.945,-0.555
3108,-0.930,-0.580
3109,-0.920,-0.620
3110,-0.895,-0.620
3111,-0.905,-0.590
3112,-0.915,-0.565
3113,-0.915,-0.595
3114,-0.910,-0.635
3115,-0.905,-0.655
3116,-0.895,-0.615
3117,-0.850,-0.540
3118,-0.830,-0.520
3119,-0.805,-0.545
3120,-0.775,-0.575
3121,-0.740,-0.620
3122,-0.720,-0.580
3123,-0.730,-0.515
3124,-0.740,-0.460
3125,-0.730,-0.490
3126,-0.745,-0.545
3127,-0.725,-0.575
3128,-0.710,-0.570
3129,-0.690,-0.505
3130,-0.695,-0.460
3131,-0.725,-0.430
3132,-0.720,-0.475
3133,-0.720,-0.545
3134,-0.725,-0.575
3135,-0.735,-0.535
3136,-0.760,-0.475
3137,-0.790,-0.480
3138,-0.800,-0.515
3139,-0.790,-0.580
3140,-0.790,-0.630
3141,-0.780,-0.585
3142,-0.795,-0.515
3143,-0.835,-0.470
3144,-0.845,-0.495
3145,-0.865,-0.570
3146,-0.875,-0.660
3147,-0.870,-0.670
3148,-0.885,-0.625
3149,-0.915,-0.560
3150,-0.940,-0.550
3151,-0.950,-0.585
3152,-0.940,-0.645
3153,-0.920,-0.630
3154,-0.915,-0.585
3155,-0.930,-0.545
3156,-0.945,-0.525
3157,-0.940,-0.585
3158,-0.945,-0.635
3159,-0.940,-0.640
3160,-0.940,-0.620
3161,-0.960,-0.580
3162,-0.960,-0.565
3163,-1.000,-0.625
3164,-0.995,-0.665
3165,-1.000,-0.660
3166,-1.005,-0.590
3167,-1.035,-0.540
3168,-1.090,-0.515
3169,-1.145,-0.560
3170,-1.175,-0.635
3171,-1.150,-0.660
3172,-1.070,-0.610
3173,-0.965,-0.500
3174,-0.835,-0.395
3175,-0.665,-0.345
3176,-0.460,-0.330
3177,-0.220,-0.310
3178,-0.025,-0.235
3179,0.165,-0.125
3180,0.310,-0.090
3181,0.465,-0.120
3182,0.590,-0.220
3183,0.690,-0.330
3184,0.730,-0.420
3185,0.725,-0.495
3186,0.685,-0.545
3187,0.605,-0.590
3188,0.530,-0.595
3189,0.425,-0.500
3190,0.240,-0.385
3191,-0.040,-0.285
3192,-0.335,-0.330
3193,-0.590,-0.470
3194,-0.785,-0.605
3195,-0.870,-0.680
3196,-0.895,-0.680
3197,-0.875,-0.635
3198,-0.835,-0.595
3199,-0.820,-0.610
3200,-0.825,-0.640
3201,-0.850,-0.630
3202,-0.885,-0.565
3203,-0.930,-0.540
3204,-0.970,-0.535
3205,-0.990,-0.590
3206,-1.010,-0.645
3207,-1.005,-0.645
3208,-1.010,-0.615
3209,-1.020,-0.565
3210,-1.050,-0.565
3211,-1.040,-0.615
3212,-1.030,-0.655
3213,-1.020,-0.645
3214,-0.995,-0.575
3215,-1.000,-0.500
3216,-1.000,-0.485
3217,-1.010,-0.530
3218,-1.010,-0.600
3219,-1.000,-0.640
3220,-0.995,-0.615
3221,-1.025,-0.575
3222,-1.040,-0.535
3223,-1.035,-0.550
3224,-1.030,-0.600
3225,-1.000,-0.620
3226,-0.985,-0.585
3227,-0.990,-0.515
3228,-0.995,-0.480
3229,-1.010,-0.490
3230,-0.995,-0.560
3231,-0.990,-0.590
3232,-0.985,-0.575
3233,-1.000,-0.530
3234,-1.010,-0.500
3235,-1.015,-0.515
3236,-1.020,-0.540
3237,-1.005,-0.560
3238,-0.980,-0.525
3239,-0.965,-0.445
3240,-0.965,-0.420
3241,-0.970,-0.440
3242,-0.975,-0.490
3243,-0.965,-0.535
3244,-0.975,-0.530
3245,-0.980,-0.480
3246,-0.980,-0.430
3247,-0.995,-0.450
3248,-0.980,-0.485
3249,-0.970,-0.505
3250,-0.940,-0.475
3251,-0.940,-0.410
3252,-0.935,-0.375
3253,-0.965,-0.395
3254,-0.960,-0.460
3255,-0.940,-0.490
3256,-0.935,-0.455
3257,-0.930,-0.410
3258,-0.950,-0.405
3259,-0.950,-0.430
3260,-0.955,-0.490
3261,-0.930,-0.485
3262,-0.900,-0.450
3263,-0.905,-0.370
3264,-0.905,-0.360
3265,-0.910,-0.400
3266,-0.915,-0.470
3267,-0.910,-0.510
3268,-0.900,-0.490
3269,-0.890,-0.460
3270,-0.905,-0.430
3271,-0.925,-0.450
3272,-0.920,-0.525
3273,-0.890,-0.550
3274,-0.890,-0.515
3275,-0.870,-0.450
3276,-0.865,-0.410
3277,-0.875,-0.420
3278,-0.890,-0.485
3279,-0.885,-0.555
3280,-0.880,-0.600
3281,-0.885,-0.570
3282,-0.885,-0.535
3283,-0.895,-0.515
3284,-0.910,-0.535
3285,-0.905,-0.600
3286,-0.890,-0.610
3287,-0.880,-0.600
3288,-0.885,-0.540
3289,-0.895,-0.495
3290,-0.910,-0.530
3291,-0.910,-0.610
3292,-0.910,-0.665
3293,-0.925,-0.670
3294,-0.920,-0.625
3295,-0.925,-0.575
3296,-0.960,-0.560
3297,-0.940,-0.600
3298,-0.920,-0.665
3299,-0.900,-0.660
3300,-0.890,-0.610
3301,-0.925,-0.555
3302,-0.925,-0.540
3303,-0.935,-0.595
3304,-0.940,-0.660
3305,-0.930,-0.695
3306,-0.925,-0.665
3307,-0.940,-0.600
3308,-0.955,-0.575
3309,-0.965,-0.590
3310,-0.945,-0.630
3311,-0.915,-0.660
3312,-0.920,-0.615
3313,-0.915,-0.560
3314,-0.940,-0.535
3315,-0.950,-0.570
3316,-0.960,-0.640
3317,-0.960,-0.695
3318,-0.950,-0.695
3319,-0.975,-0.635
3320,-1.000,-0.565
3321,-1.020,-0.550
3322,-0.995,-0.620
3323,-0.975,-0.645
3324,-0.955,-0.665
3325,-0.955,-0.625
3326,-0.985,-0.560
3327,-1.005,-0.580
3328,-1.010,-0.645
3329,-1.020,-0.690
3330,-1.010,-0.710
3331,-1.025,-0.640
3332,-1.025,-0.605
3333,-1.025,-0.595
3334,-1.035,-0.635
3335,-1.005,-0.665
3336,-0.990,-0.645
3337,-1.000,-0.605
3338,-1.010,-0.585
3339,-1.015,-0.590
3340,-1.030,-0.650
3341,-1.020,-0.710
3342,-1.005,-0.695
3343,-1.000,-0.625
3344,-1.010,-0.585
3345,-1.025,-0.570
3346,-1.015,-0.610
3347,-0.990,-0.655
3348,-0.965,-0.680
3349,-0.965,-0.640
3350,-0.965,-0.565
3351,-1.005,-0.545
3352,-1.000,-0.585
3353,-1.000,-0.650
3354,-0.990,-0.700
3355,-1.005,-0.690
3356,-0.980,-0.625
3357,-0.990,-0.585
3358,-0.990,-0.600
3359,-0.960,-0.620
3360,-0.930,-0.645
3361,-0.915,-0.610
3362,-0.920,-0.580
3363,-0.950,-0.555
3364,-0.935,-0.605
3365,-0.930,-0.675
3366,-0.925,-0.715
3367,-0.910,-0.700
3368,-0.900,-0.620
3369,-0.890,-0.545
3370,-0.865,-0.545
3371,-0.825,-0.585
3372,-0.790,-0.630
3373,-0.775,-0.620
3374,-0.755,-0.580
3375,-0.755,-0.535
3376,-0.750,-0.530
3377,-0.755,-0.585
3378,-0.750,-0.610
3379,-0.750,-0.575
3380,-0.765,-0.525
3381,-0.770,-0.490
3382,-0.760,-0.510
3383,-0.750,-0.565
3384,-0.755,-0.600
3385,-0.760,-0.580
3386,-0.780,-0.525
3387,-0.795,-0.485
3388,-0.810,-0.510
3389,-0.835,-0.590
3390,-0.825,-0.640
3391,-0.820,-0.650
3392,-0.825,-0.595
3393,-0.850,-0.545
3394,-0.880,-0.545
3395,-0.890,-0.610
3396,-0.900,-0.645
3397,-0.895,-0.665
3398,-0.930,-0.605
3399,-0.945,-0.585
3400,-0.980,-0.600
3401,-0.980,-0.645
3402,-0.990,-0.690
3403,-0.980,-0.670
3404,-0.980,-0.615
3405,-1.005,-0.575
3406,-0.995,-0.600
3407,-0.985,-0.660
3408,-0.960,-0.655
3409,-0.930,-0.645
3410,-0.955,-0.580
3411,-0.975,-0.580
3412,-0.995,-0.610
3413,-0.995,-0.695
3414,-1.000,-0.725
3415,-1.010,-0.700
3416,-1.065,-0.630
3417,-1.100,-0.575
3418,-1.150,-0.590
3419,-1.175,-0.635
3420,-1.185,-0.690
3421,-1.165,-0.685
3422,-1.110,-0.615
3423,-1.040,-0.520
3424,-0.925,-0.435
3425,-0.780,-0.435
3426,-0.575,-0.440
3427,-0.380,-0.405
3428,-0.185,-0.320
3429,-0.005,-0.220
3430,0.145,-0.140
3431,0.310,-0.165
3432,0.480,-0.215
3433,0.595,-0.305
3434,0.685,-0.360
3435,0.695,-0.410
3436,0.695,-0.495
3437,0.655,-0.590
3438,0.585,-0.660
3439,0.530,-0.670
3440,0.445,-0.595
3441,0.290,-0.450
3442,0.060,-0.345
3443,-0.240,-0.350
3444,-0.515,-0.460
3445,-0.725,-0.585
3446,-0.855,-0.680
3447,-0.915,-0.695
3448,-0.915,-0.675
3449,-0.905,-0.675
3450,-0.865,-0.705
3451,-0.840,-0.700
3452,-0.845,-0.665
3453,-0.890,-0.610
3454,-0.940,-0.575
3455,-0.995,-0.595
3456,-1.020,-0.650
3457,-1.035,-0.685
3458,-1.035,-0.670
3459,-1.045,-0.595
3460,-1.065,-0.585
3461,-1.085,-0.630
3462,-1.085,-0.675
3463,-1.070,-0.730
3464,-1.065,-0.695
3465,-1.050,-0.630
3466,-1.055,-0.565
3467,-1.060,-0.575
3468,-1.030,-0.620
3469,-1.025,-0.635
3470,-1.025,-0.605
3471,-1.035,-0.570
3472,-1.060,-0.575
3473,-1.070,-0.640
3474,-1.055,-0.670
3475,-1.055,-0.670
3476,-1.055,-0.610
3477,-1.055,-0.560
3478,-1.050,-0.560
3479,-1.040,-0.595
3480,-1.020,-0.625
3481,-1.020,-0.600
3482,-1.010,-0.550
3483,-1.020,-0.545
3484,-1.030,-0.565
3485,-1.025,-0.620
3486,-1.025,-0.635
3487,-1.025,-0.600
3488,-1.030,-0.540
3489,-1.025,-0.495
3490,-1.010,-0.510
3491,-1.000,-0.530
3492,-0.975,-0.560
3493,-0.970,-0.535
3494,-0.985,-0.480
3495,-1.005,-0.455
3496,-1.025,-0.500
3497,-1.005,-0.550
3498,-1.010,-0.575
3499,-0.995,-0.555
3500,-0.995,-0.485
3501,-1.000,-0.435
3502,-0.985,-0.460
3503,-0.965,-0.505
3504,-0.955,-0.520
3505,-0.950,-0.510
3506,-0.950,-0.435
3507,-0.960,-0.410
3508,-0.970,-0.450
3509,-0.980,-0.515
3510,-0.970,-0.555
3511,-0.970,-0.545
3512,-0.975,-0.500
3513,-0.970,-0.425
3514,-0.960,-0.425
3515,-0.950,-0.450
3516,-0.935,-0.510
3517,-0.905,-0.535
3518,-0.905,-0.510
3519,-0.910,-0.460
3520,-0.935,-0.465
3521,-0.935,-0.515
3522,-0.960,-0.565
3523,-0.940,-0.580
3524,-0.930,-0.550
3525,-0.925,-0.485
3526,-0.920,-0.465
3527,-0.930,-0.505
3528,-0.890,-0.565
3529,-0.880,-0.600
3530,-0.880,-0.580
3531,-0.895,-0.520
3532,-0.910,-0.530
3533,-0.915,-0.570
3534,-0.940,-0.635
3535,-0.935,-0.685
3536,-0.920,-0.665
3537,-0.905,-0.595
3538,-0.920,-0.545
3539,-0.930,-0.535
3540,-0.925,-0.570
3541,-0.915,-0.660
3542,-0.920,-0.660
3543,-0.920,-0.620
3544,-0.935,-0.575
3545,-0.950,-0.595
3546,-0.985,-0.650
3547,-0.965,-0.705
3548,-0.940,-0.695
3549,-0.940,-0.640
3550,-0.930,-0.585
3551,-0.940,-0.570
3552,-0.925,-0.620
3553,-0.925,-0.670
3554,-0.920,-0.675
3555,-0.925,-0.645
3556,-0.940,-0.610
3557,-0.955,-0.630
3558,-0.965,-0.675
3559,-0.945,-0.695
3560,-0.950,-0.695
3561,-0.955,-0.615
3562,-0.965,-0.585
3563,-0.975,-0.595
3564,-0.975,-0.630
3565,-0.955,-0.690
3566,-0.945,-0.695
3567,-0.945,-0.635
3568,-0.985,-0.610
3569,-1.005,-0.605
3570,-1.020,-0.645
3571,-1.010,-0.730
3572,-1.015,-0.725
3573,-1.000,-0.685
3574,-1.010,-0.615
3575,-1.025,-0.590
3576,-1.025,-0.650
3577,-1.020,-0.705
3578,-1.020,-0.730
3579,-1.025,-0.700
3580,-1.045,-0.670
3581,-1.060,-0.665
3582,-1.075,-0.700
3583,-1.055,-0.765
3584,-1.035,-0.765
3585,-1.035,-0.700
3586,-1.040,-0.620
3587,-1.045,-0.610
3588,-1.040,-0.635
3589,-1.025,-0.695
3590,-1.020,-0.730
3591,-1.020,-0.705
3592,-1.030,-0.650
3593,-1.045,-0.630
3594,-1.060,-0.655
3595,-1.045,-0.715
3596,-1.035,-0.725
3597,-1.005,-0.685
3598,-1.000,-0.625
3599,-1.010,-0.590
