0,-0.805,-0.455
1,-0.805,-0.455
2,-0.805,-0.455
3,-0.805,-0.455
4,-0.805,-0.455
5,-0.805,-0.455
6,-0.805,-0.455
7,-0.820,-0.455
8,-0.835,-0.455
9,-0.840,-0.430
10,-0.835,-0.435
11,-0.845,-0.415
12,-0.840,-0.420
13,-0.840,-0.405
14,-0.855,-0.400
15,-0.880,-0.415
16,-0.905,-0.420
17,-0.940,-0.440
18,-0.950,-0.475
19,-0.985,-0.485
20,-0.980,-0.495
21,-1.020,-0.490
22,-1.015,-0.495
23,-1.020,-0.490
24,-1.015,-0.490
25,-1.010,-0.475
26,-0.990,-0.465
27,-0.995,-0.470
28,-0.995,-0.485
29,-1.010,-0.490
30,-1.020,-0.505
31,-1.030,-0.515
32,-1.040,-0.515
33,-1.035,-0.505
34,-1.035,-0.515
35,-1.040,-0.490
36,-1.025,-0.495
37,-1.025,-0.470
38,-1.005,-0.455
39,-1.010,-0.470
40,-1.005,-0.455
41,-1.010,-0.470
42,-1.010,-0.485
43,-1.025,-0.480
44,-1.030,-0.505
45,-1.045,-0.490
46,-1.035,-0.495
47,-1.035,-0.480
48,-1.020,-0.480
49,-1.010,-0.470
50,-0.995,-0.455
51,-0.995,-0.465
52,-0.980,-0.455
53,-0.965,-0.470
54,-0.980,-0.465
55,-0.985,-0.495
56,-0.980,-0.495
57,-0.970,-0.475
58,-0.960,-0.480
59,-0.935,-0.445
60,-0.910,-0.410
61,-0.860,-0.335
62,-0.745,-0.265
63,-0.580,-0.130
64,-0.360,0.030
65,-0.095,0.185
66,0.165,0.305
67,0.435,0.385
68,0.710,0.405
69,0.975,0.445
70,1.160,0.460
71,1.200,0.460
72,1.070,0.415
73,0.735,0.305
74,0.255,0.140
75,-0.310,-0.135
76,-0.910,-0.455
77,-1.395,-0.815
78,-1.660,-1.085
79,-1.700,-1.220
80,-1.590,-1.170
81,-1.395,-1.020
82,-1.230,-0.845
83,-1.105,-0.720
84,-1.065,-0.595
85,-1.030,-0.545
86,-1.050,-0.545
87,-1.050,-0.540
88,-1.035,-0.545
89,-1.020,-0.540
90,-1.020,-0.530
91,-0.995,-0.510
92,-0.995,-0.505
93,-1.000,-0.505
94,-1.010,-0.475
95,-1.020,-0.490
96,-1.005,-0.450
97,-1.010,-0.460
98,-1.000,-0.440
99,-0.990,-0.455
100,-0.985,-0.450
101,-1.000,-0.475
102,-1.000,-0.455
103,-0.995,-0.465
104,-1.010,-0.475
105,-1.010,-0.470
106,-1.020,-0.475
107,-1.020,-0.455
108,-0.990,-0.440
109,-0.990,-0.440
110,-0.980,-0.435
111,-0.970,-0.430
112,-0.970,-0.440
113,-0.975,-0.440
114,-0.990,-0.455
115,-0.990,-0.450
116,-0.990,-0.460
117,-1.010,-0.460
118,-1.015,-0.450
119,-1.020,-0.425
120,-1.005,-0.420
121,-1.000,-0.435
122,-0.975,-0.415
123,-0.980,-0.425
124,-0.980,-0.415
125,-0.975,-0.420
126,-0.990,-0.430
127,-0.990,-0.435
128,-1.005,-0.430
129,-1.000,-0.425
130,-1.005,-0.435
131,-0.995,-0.410
132,-1.000,-0.420
133,-0.975,-0.410
134,-0.965,-0.410
135,-0.960,-0.410
136,-0.965,-0.415
137,-0.960,-0.420
138,-0.960,-0.420
139,-0.960,-0.425
140,-0.980,-0.415
141,-0.975,-0.410
142,-0.970,-0.400
143,-0.960,-0.385
144,-0.945,-0.380
145,-0.930,-0.365
146,-0.910,-0.345
147,-0.910,-0.335
148,-0.925,-0.345
149,-0.905,-0.330
150,-0.910,-0.330
151,-0.900,-0.355
152,-0.915,-0.360
153,-0.910,-0.340
154,-0.895,-0.305
155,-0.885,-0.315
156,-0.865,-0.305
157,-0.845,-0.280
158,-0.830,-0.265
159,-0.810,-0.260
160,-0.790,-0.265
161,-0.785,-0.265
162,-0.770,-0.260
163,-0.770,-0.270
164,-0.770,-0.280
165,-0.760,-0.255
166,-0.730,-0.240
167,-0.715,-0.215
168,-0.690,-0.180
169,-0.675,-0.170
170,-0.640,-0.150
171,-0.625,-0.150
172,-0.610,-0.135
173,-0.595,-0.135
174,-0.585,-0.140
175,-0.580,-0.135
176,-0.575,-0.130
177,-0.565,-0.130
178,-0.570,-0.105
179,-0.550,-0.110
180,-0.540,-0.085
181,-0.520,-0.075
182,-0.500,-0.070
183,-0.495,-0.090
184,-0.500,-0.095
185,-0.510,-0.095
186,-0.545,-0.135
187,-0.575,-0.160
188,-0.595,-0.165
189,-0.620,-0.170
190,-0.645,-0.195
191,-0.655,-0.210
192,-0.670,-0.205
193,-0.670,-0.210
194,-0.720,-0.225
195,-0.725,-0.235
196,-0.750,-0.230
197,-0.765,-0.275
198,-0.785,-0.280
199,-0.815,-0.320
200,-0.830,-0.350
201,-0.870,-0.345
202,-0.885,-0.375
203,-0.905,-0.370
204,-0.910,-0.365
205,-0.905,-0.365
206,-0.925,-0.370
207,-0.910,-0.380
208,-0.910,-0.390
209,-0.920,-0.415
210,-0.940,-0.415
211,-0.945,-0.430
212,-0.975,-0.445
213,-0.980,-0.445
214,-0.985,-0.430
215,-0.985,-0.440
216,-0.965,-0.450
217,-0.955,-0.420
218,-0.945,-0.430
219,-0.940,-0.435
220,-0.940,-0.440
221,-0.950,-0.420
222,-0.960,-0.430
223,-0.970,-0.435
224,-0.975,-0.450
225,-0.970,-0.445
226,-0.985,-0.440
227,-0.990,-0.435
228,-0.990,-0.430
229,-0.975,-0.415
230,-0.970,-0.400
231,-0.945,-0.405
232,-0.950,-0.410
233,-0.965,-0.415
234,-0.965,-0.425
235,-0.975,-0.440
236,-0.985,-0.445
237,-0.985,-0.440
238,-0.980,-0.445
239,-0.960,-0.435
240,-0.960,-0.430
241,-0.945,-0.415
242,-0.950,-0.390
243,-0.935,-0.425
244,-0.940,-0.420
245,-0.950,-0.410
246,-0.955,-0.410
247,-0.945,-0.435
248,-0.960,-0.435
249,-0.965,-0.410
250,-0.970,-0.410
251,-0.980,-0.415
252,-0.965,-0.415
253,-0.960,-0.385
254,-0.955,-0.380
255,-0.930,-0.385
256,-0.950,-0.390
257,-0.940,-0.400
258,-0.950,-0.400
259,-0.960,-0.410
260,-0.985,-0.415
261,-0.990,-0.405
262,-0.985,-0.415
263,-0.970,-0.410
264,-0.960,-0.395
265,-0.960,-0.385
266,-0.940,-0.395
267,-0.940,-0.395
268,-0.945,-0.400
269,-0.955,-0.420
270,-0.965,-0.430
271,-0.975,-0.445
272,-0.985,-0.445
273,-0.990,-0.430
274,-0.990,-0.425
275,-1.000,-0.415
276,-0.995,-0.400
277,-0.965,-0.405
278,-0.970,-0.390
279,-0.955,-0.395
280,-0.960,-0.390
281,-0.970,-0.400
282,-0.985,-0.420
283,-0.990,-0.425
284,-0.995,-0.435
285,-1.010,-0.440
286,-1.025,-0.440
287,-1.000,-0.420
288,-0.990,-0.425
289,-0.980,-0.425
290,-0.970,-0.395
291,-0.980,-0.405
292,-0.980,-0.410
293,-0.985,-0.450
294,-1.015,-0.430
295,-1.025,-0.460
296,-1.040,-0.465
297,-1.035,-0.475
298,-1.025,-0.465
299,-1.015,-0.455
300,-1.020,-0.440
301,-1.010,-0.420
302,-0.985,-0.405
303,-0.980,-0.425
304,-0.990,-0.400
305,-0.995,-0.420
306,-1.015,-0.440
307,-1.030,-0.435
308,-1.045,-0.460
309,-1.045,-0.460
310,-1.050,-0.465
311,-1.055,-0.445
312,-1.040,-0.445
313,-1.005,-0.430
314,-0.995,-0.415
315,-1.010,-0.400
316,-1.015,-0.410
317,-1.025,-0.430
318,-1.035,-0.440
319,-1.030,-0.455
320,-1.035,-0.455
321,-1.025,-0.475
322,-1.035,-0.470
323,-1.025,-0.450
324,-1.030,-0.440
325,-1.035,-0.440
326,-1.025,-0.430
327,-1.005,-0.440
328,-1.015,-0.430
329,-1.000,-0.430
330,-1.015,-0.435
331,-1.025,-0.450
332,-1.015,-0.440
333,-1.020,-0.450
334,-1.040,-0.440
335,-1.035,-0.440
336,-1.025,-0.435
337,-1.015,-0.420
338,-1.010,-0.425
339,-1.000,-0.415
340,-1.020,-0.410
341,-1.000,-0.420
342,-1.020,-0.420
343,-1.020,-0.435
344,-1.010,-0.440
345,-1.030,-0.455
346,-1.020,-0.445
347,-1.045,-0.445
348,-1.045,-0.425
349,-1.035,-0.435
350,-1.015,-0.425
351,-1.015,-0.425
352,-1.015,-0.430
353,-1.010,-0.435
354,-1.000,-0.465
355,-1.020,-0.455
356,-1.035,-0.485
357,-1.040,-0.465
358,-1.035,-0.450
359,-1.020,-0.445
360,-1.010,-0.430
361,-1.010,-0.415
362,-1.010,-0.410
363,-1.005,-0.405
364,-1.010,-0.400
365,-1.005,-0.420
366,-1.015,-0.440
367,-1.030,-0.455
368,-1.025,-0.435
369,-1.040,-0.445
370,-1.035,-0.450
371,-1.025,-0.435
372,-1.025,-0.420
373,-1.020,-0.415
374,-0.995,-0.400
375,-0.985,-0.420
376,-0.990,-0.425
377,-0.985,-0.420
378,-1.005,-0.425
379,-1.020,-0.430
380,-1.025,-0.450
381,-1.030,-0.455
382,-1.030,-0.465
383,-1.040,-0.450
384,-1.015,-0.420
385,-1.005,-0.430
386,-1.000,-0.405
387,-0.980,-0.410
388,-0.995,-0.420
389,-1.010,-0.420
390,-1.030,-0.430
391,-1.020,-0.440
392,-1.035,-0.430
393,-1.050,-0.435
394,-1.060,-0.430
395,-1.030,-0.425
396,-1.025,-0.410
397,-1.015,-0.415
398,-1.015,-0.415
399,-1.015,-0.400
400,-1.015,-0.410
401,-1.020,-0.420
402,-1.020,-0.425
403,-1.030,-0.420
404,-1.030,-0.445
405,-1.035,-0.460
406,-1.040,-0.430
407,-1.025,-0.425
408,-1.025,-0.415
409,-1.020,-0.410
410,-0.990,-0.400
411,-1.005,-0.415
412,-0.990,-0.410
413,-0.995,-0.405
414,-1.010,-0.410
415,-1.020,-0.420
416,-1.025,-0.430
417,-1.025,-0.430
418,-1.030,-0.435
419,-1.030,-0.420
420,-1.030,-0.410
421,-1.015,-0.410
422,-1.000,-0.375
423,-0.995,-0.385
424,-1.000,-0.385
425,-0.990,-0.400
426,-0.995,-0.400
427,-1.010,-0.415
428,-1.005,-0.415
429,-1.005,-0.415
430,-1.010,-0.420
431,-1.010,-0.420
432,-1.010,-0.410
433,-1.000,-0.405
434,-0.980,-0.405
435,-0.965,-0.405
436,-0.990,-0.395
437,-0.990,-0.405
438,-0.990,-0.415
439,-0.995,-0.425
440,-1.015,-0.430
441,-1.010,-0.430
442,-1.010,-0.420
443,-1.020,-0.405
444,-1.005,-0.395
445,-0.980,-0.380
446,-0.990,-0.375
447,-0.970,-0.370
448,-0.970,-0.365
449,-0.985,-0.380
450,-1.005,-0.400
451,-0.995,-0.400
452,-1.020,-0.395
453,-1.030,-0.415
454,-1.025,-0.420
455,-1.015,-0.410
456,-1.010,-0.425
457,-0.985,-0.395
458,-0.985,-0.385
459,-0.970,-0.380
460,-0.960,-0.390
461,-0.945,-0.395
462,-0.960,-0.400
463,-0.960,-0.405
464,-0.960,-0.405
465,-0.945,-0.410
466,-0.945,-0.410
467,-0.915,-0.410
468,-0.900,-0.385
469,-0.885,-0.365
470,-0.895,-0.350
471,-0.885,-0.335
472,-0.895,-0.365
473,-0.870,-0.365
474,-0.845,-0.385
475,-0.825,-0.385
476,-0.810,-0.385
477,-0.785,-0.375
478,-0.785,-0.360
479,-0.770,-0.345
480,-0.780,-0.320
481,-0.780,-0.305
482,-0.780,-0.310
483,-0.805,-0.320
484,-0.820,-0.310
485,-0.820,-0.305
486,-0.830,-0.330
487,-0.835,-0.340
488,-0.840,-0.345
489,-0.860,-0.355
490,-0.860,-0.365
491,-0.880,-0.335
492,-0.910,-0.345
493,-0.925,-0.340
494,-0.950,-0.330
495,-0.955,-0.345
496,-0.985,-0.355
497,-0.985,-0.380
498,-0.995,-0.390
499,-1.020,-0.390
500,-1.030,-0.415
501,-1.055,-0.405
502,-1.060,-0.400
503,-1.060,-0.400
504,-1.045,-0.395
505,-1.035,-0.370
506,-1.040,-0.370
507,-1.025,-0.365
508,-1.025,-0.370
509,-1.020,-0.385
510,-1.035,-0.380
511,-1.040,-0.400
512,-1.070,-0.415
513,-1.065,-0.400
514,-1.070,-0.390
515,-1.070,-0.385
516,-1.060,-0.390
517,-1.045,-0.385
518,-1.035,-0.375
519,-1.040,-0.380
520,-1.050,-0.390
521,-1.020,-0.390
522,-1.020,-0.390
523,-1.045,-0.405
524,-1.020,-0.400
525,-1.050,-0.400
526,-1.035,-0.395
527,-1.045,-0.385
528,-1.020,-0.390
529,-1.005,-0.370
530,-1.005,-0.365
531,-0.975,-0.355
532,-0.985,-0.370
533,-0.980,-0.370
534,-0.980,-0.370
535,-0.990,-0.375
536,-0.990,-0.365
537,-0.995,-0.345
538,-0.995,-0.350
539,-0.990,-0.315
540,-0.975,-0.290
541,-0.920,-0.240
542,-0.820,-0.165
543,-0.665,-0.060
544,-0.430,0.095
545,-0.160,0.265
546,0.100,0.415
547,0.370,0.525
548,0.650,0.590
549,0.895,0.605
550,1.100,0.595
551,1.130,0.560
552,0.970,0.465
553,0.630,0.315
554,0.155,0.110
555,-0.415,-0.185
556,-1.005,-0.520
557,-1.455,-0.850
558,-1.730,-1.080
559,-1.805,-1.205
560,-1.740,-1.205
561,-1.585,-1.085
562,-1.430,-0.925
563,-1.315,-0.760
564,-1.235,-0.640
565,-1.190,-0.555
566,-1.145,-0.495
567,-1.100,-0.465
568,-1.070,-0.450
569,-1.035,-0.450
570,-0.985,-0.445
571,-0.985,-0.455
572,-1.010,-0.425
573,-1.025,-0.425
574,-1.025,-0.410
575,-1.035,-0.405
576,-1.035,-0.380
577,-1.020,-0.370
578,-1.010,-0.360
579,-0.985,-0.335
580,-0.985,-0.345
581,-0.985,-0.335
582,-0.990,-0.360
583,-0.995,-0.365
584,-1.005,-0.370
585,-1.030,-0.370
586,-1.020,-0.355
587,-1.020,-0.355
588,-1.015,-0.340
589,-1.005,-0.330
590,-1.005,-0.310
591,-1.005,-0.310
592,-0.995,-0.310
593,-0.995,-0.320
594,-1.005,-0.325
595,-1.020,-0.335
596,-1.025,-0.355
597,-1.030,-0.360
598,-1.030,-0.360
599,-1.015,-0.355
600,-1.000,-0.345
601,-0.980,-0.335
602,-0.990,-0.320
603,-0.985,-0.305
604,-0.995,-0.315
605,-0.985,-0.320
606,-0.985,-0.310
607,-1.005,-0.330
608,-1.005,-0.320
609,-1.020,-0.330
610,-1.025,-0.325
611,-1.015,-0.320
612,-1.015,-0.305
613,-1.000,-0.290
614,-1.000,-0.285
615,-1.000,-0.280
616,-0.985,-0.290
617,-0.965,-0.300
618,-0.985,-0.310
619,-0.995,-0.325
620,-0.995,-0.310
621,-0.985,-0.320
622,-0.985,-0.305
623,-0.985,-0.300
624,-0.975,-0.295
625,-0.960,-0.270
626,-0.950,-0.270
627,-0.940,-0.270
628,-0.940,-0.290
629,-0.935,-0.265
630,-0.940,-0.275
631,-0.930,-0.275
632,-0.935,-0.275
633,-0.930,-0.270
634,-0.920,-0.250
635,-0.915,-0.240
636,-0.885,-0.225
637,-0.895,-0.220
638,-0.880,-0.205
639,-0.865,-0.190
640,-0.870,-0.190
641,-0.835,-0.185
642,-0.820,-0.195
643,-0.820,-0.220
644,-0.830,-0.205
645,-0.815,-0.200
646,-0.840,-0.190
647,-0.805,-0.170
648,-0.795,-0.160
649,-0.755,-0.150
650,-0.725,-0.135
651,-0.710,-0.115
652,-0.695,-0.130
653,-0.675,-0.125
654,-0.675,-0.120
655,-0.680,-0.125
656,-0.675,-0.130
657,-0.680,-0.135
658,-0.655,-0.110
659,-0.640,-0.100
660,-0.630,-0.070
661,-0.610,-0.065
662,-0.590,-0.055
663,-0.575,-0.050
664,-0.570,-0.060
665,-0.570,-0.065
666,-0.585,-0.080
667,-0.595,-0.095
668,-0.605,-0.110
669,-0.635,-0.120
670,-0.645,-0.115
671,-0.650,-0.150
672,-0.650,-0.135
673,-0.650,-0.140
674,-0.670,-0.130
675,-0.680,-0.150
676,-0.710,-0.190
677,-0.705,-0.190
678,-0.735,-0.215
679,-0.765,-0.250
680,-0.795,-0.270
681,-0.820,-0.290
682,-0.825,-0.290
683,-0.845,-0.295
684,-0.850,-0.310
685,-0.860,-0.295
686,-0.870,-0.295
687,-0.880,-0.295
688,-0.875,-0.320
689,-0.880,-0.310
690,-0.915,-0.330
691,-0.925,-0.335
692,-0.945,-0.355
693,-0.945,-0.365
694,-0.975,-0.380
695,-0.970,-0.370
696,-0.980,-0.365
697,-0.965,-0.360
698,-0.935,-0.350
699,-0.930,-0.355
700,-0.935,-0.375
701,-0.940,-0.365
702,-0.945,-0.380
703,-0.945,-0.385
704,-0.965,-0.400
705,-0.985,-0.405
706,-0.990,-0.385
707,-0.980,-0.395
708,-0.975,-0.400
709,-0.960,-0.390
710,-0.960,-0.385
711,-0.945,-0.380
712,-0.945,-0.390
713,-0.945,-0.395
714,-0.945,-0.405
715,-0.960,-0.400
716,-0.970,-0.405
717,-0.970,-0.400
718,-0.980,-0.385
719,-0.970,-0.395
720,-0.965,-0.390
721,-0.945,-0.385
722,-0.940,-0.370
723,-0.925,-0.370
724,-0.925,-0.360
725,-0.925,-0.365
726,-0.935,-0.395
727,-0.950,-0.385
728,-0.955,-0.395
729,-0.965,-0.400
730,-0.955,-0.395
731,-0.955,-0.395
732,-0.955,-0.390
733,-0.950,-0.370
734,-0.925,-0.380
735,-0.920,-0.355
736,-0.900,-0.360
737,-0.920,-0.365
738,-0.925,-0.395
739,-0.925,-0.390
740,-0.930,-0.405
741,-0.930,-0.390
742,-0.940,-0.380
743,-0.920,-0.385
744,-0.905,-0.375
745,-0.900,-0.365
746,-0.915,-0.330
747,-0.900,-0.330
748,-0.890,-0.335
749,-0.885,-0.340
750,-0.900,-0.355
751,-0.905,-0.370
752,-0.900,-0.375
753,-0.905,-0.375
754,-0.920,-0.370
755,-0.925,-0.370
756,-0.925,-0.355
757,-0.915,-0.340
758,-0.905,-0.330
759,-0.895,-0.335
760,-0.900,-0.340
761,-0.895,-0.360
762,-0.895,-0.370
763,-0.900,-0.385
764,-0.915,-0.400
765,-0.920,-0.410
766,-0.935,-0.400
767,-0.940,-0.390
768,-0.945,-0.390
769,-0.935,-0.380
770,-0.920,-0.370
771,-0.920,-0.355
772,-0.925,-0.375
773,-0.920,-0.375
774,-0.930,-0.385
775,-0.935,-0.405
776,-0.960,-0.420
777,-0.960,-0.410
778,-0.965,-0.400
779,-0.945,-0.400
780,-0.960,-0.390
781,-0.950,-0.380
782,-0.950,-0.375
783,-0.955,-0.380
784,-0.950,-0.385
785,-0.940,-0.385
786,-0.950,-0.405
787,-0.970,-0.410
788,-0.970,-0.440
789,-0.980,-0.430
790,-0.980,-0.425
791,-0.980,-0.440
792,-0.970,-0.435
793,-0.965,-0.435
794,-0.975,-0.405
795,-0.965,-0.410
796,-0.975,-0.415
797,-0.965,-0.415
798,-0.975,-0.430
799,-0.980,-0.440
800,-0.990,-0.470
801,-1.000,-0.465
802,-1.015,-0.460
803,-1.010,-0.455
804,-0.995,-0.440
805,-0.975,-0.445
806,-0.975,-0.425
807,-0.965,-0.425
808,-0.960,-0.425
809,-0.970,-0.430
810,-0.975,-0.445
811,-0.970,-0.450
812,-1.005,-0.465
813,-0.995,-0.480
814,-1.005,-0.470
815,-1.000,-0.465
816,-0.995,-0.475
817,-0.970,-0.460
818,-0.980,-0.445
819,-0.965,-0.435
820,-0.965,-0.440
821,-0.965,-0.460
822,-0.975,-0.455
823,-0.990,-0.465
824,-1.005,-0.465
825,-1.010,-0.470
826,-1.015,-0.450
827,-1.015,-0.455
828,-1.015,-0.440
829,-0.985,-0.455
830,-0.970,-0.450
831,-0.980,-0.445
832,-0.980,-0.455
833,-0.965,-0.460
834,-0.990,-0.465
835,-0.985,-0.475
836,-1.000,-0.480
837,-1.005,-0.480
838,-1.000,-0.485
839,-1.000,-0.470
840,-1.010,-0.460
841,-1.005,-0.460
842,-0.995,-0.470
843,-0.990,-0.455
844,-0.965,-0.465
845,-0.970,-0.460
846,-0.985,-0.475
847,-0.980,-0.490
848,-1.005,-0.490
849,-1.005,-0.495
850,-1.015,-0.500
851,-1.010,-0.475
852,-1.005,-0.465
853,-1.000,-0.470
854,-0.980,-0.435
855,-0.985,-0.440
856,-0.985,-0.455
857,-0.975,-0.460
858,-0.980,-0.470
859,-0.990,-0.475
860,-0.990,-0.475
861,-0.995,-0.495
862,-1.005,-0.490
863,-1.010,-0.480
864,-1.010,-0.470
865,-0.995,-0.450
866,-1.000,-0.470
867,-0.980,-0.450
868,-0.970,-0.465
869,-0.965,-0.480
870,-0.975,-0.465
871,-0.995,-0.490
872,-1.005,-0.510
873,-1.000,-0.500
874,-1.000,-0.505
875,-1.005,-0.485
876,-0.990,-0.480
877,-0.985,-0.480
878,-0.990,-0.460
879,-0.970,-0.445
880,-0.980,-0.445
881,-0.980,-0.450
882,-0.970,-0.470
883,-0.995,-0.470
884,-1.005,-0.475
885,-0.995,-0.490
886,-1.010,-0.490
887,-1.000,-0.480
888,-1.005,-0.470
889,-0.995,-0.470
890,-0.985,-0.445
891,-0.965,-0.445
892,-0.970,-0.445
893,-0.960,-0.460
894,-0.980,-0.470
895,-0.985,-0.480
896,-0.995,-0.480
897,-1.005,-0.505
898,-1.000,-0.505
899,-1.000,-0.490
900,-0.990,-0.480
901,-0.975,-0.470
902,-0.950,-0.470
903,-0.950,-0.450
904,-0.955,-0.465
905,-0.965,-0.460
906,-0.980,-0.460
907,-0.980,-0.470
908,-0.980,-0.480
909,-0.985,-0.485
910,-0.995,-0.485
911,-0.990,-0.465
912,-0.985,-0.465
913,-0.960,-0.470
914,-0.955,-0.460
915,-0.950,-0.435
916,-0.955,-0.445
917,-0.965,-0.450
918,-0.965,-0.460
919,-0.965,-0.470
920,-0.980,-0.485
921,-0.970,-0.475
922,-0.985,-0.490
923,-0.985,-0.470
924,-0.970,-0.475
925,-0.960,-0.470
926,-0.955,-0.455
927,-0.940,-0.445
928,-0.940,-0.455
929,-0.945,-0.470
930,-0.940,-0.465
931,-0.950,-0.465
932,-0.950,-0.480
933,-0.960,-0.475
934,-0.970,-0.470
935,-0.955,-0.465
936,-0.960,-0.460
937,-0.930,-0.450
938,-0.880,-0.440
939,-0.855,-0.430
940,-0.850,-0.440
941,-0.850,-0.445
942,-0.860,-0.450
943,-0.875,-0.470
944,-0.855,-0.465
945,-0.840,-0.470
946,-0.840,-0.475
947,-0.810,-0.440
948,-0.780,-0.430
949,-0.745,-0.425
950,-0.740,-0.395
951,-0.720,-0.400
952,-0.740,-0.400
953,-0.750,-0.410
954,-0.770,-0.420
955,-0.795,-0.435
956,-0.805,-0.435
957,-0.830,-0.415
958,-0.820,-0.415
959,-0.815,-0.395
960,-0.850,-0.385
961,-0.820,-0.365
962,-0.835,-0.375
963,-0.835,-0.365
964,-0.850,-0.390
965,-0.895,-0.420
966,-0.935,-0.430
967,-0.965,-0.430
968,-0.980,-0.465
969,-1.000,-0.470
970,-1.005,-0.465
971,-1.015,-0.465
972,-1.020,-0.460
973,-1.025,-0.450
974,-1.010,-0.465
975,-1.000,-0.455
976,-1.005,-0.465
977,-1.000,-0.465
978,-1.010,-0.470
979,-1.005,-0.485
980,-1.035,-0.500
981,-1.030,-0.505
982,-1.035,-0.485
983,-1.040,-0.480
984,-1.040,-0.470
985,-1.035,-0.455
986,-1.025,-0.440
987,-1.000,-0.450
988,-1.015,-0.440
989,-0.995,-0.450
990,-1.005,-0.450
991,-1.025,-0.450
992,-1.015,-0.475
993,-1.020,-0.485
994,-1.025,-0.465
995,-1.020,-0.460
996,-1.010,-0.465
997,-1.000,-0.440
998,-0.985,-0.430
999,-0.965,-0.440
1000,-0.970,-0.425
1001,-0.970,-0.445
1002,-0.965,-0.465
1003,-0.975,-0.465
1004,-0.980,-0.470
1005,-0.970,-0.470
1006,-0.970,-0.460
1007,-0.955,-0.445
1008,-0.930,-0.440
1009,-0.915,-0.390
1010,-0.900,-0.360
1011,-0.870,-0.330
1012,-0.795,-0.270
1013,-0.690,-0.175
1014,-0.500,-0.060
1015,-0.290,0.100
1016,-0.035,0.245
1017,0.240,0.375
1018,0.520,0.440
1019,0.810,0.470
1020,1.100,0.485
1021,1.295,0.490
1022,1.320,0.480
1023,1.170,0.415
1024,0.825,0.310
1025,0.320,0.120
1026,-0.295,-0.160
1027,-0.870,-0.500
1028,-1.340,-0.835
1029,-1.635,-1.115
1030,-1.690,-1.230
1031,-1.585,-1.185
1032,-1.380,-1.035
1033,-1.175,-0.850
1034,-1.055,-0.675
1035,-0.995,-0.585
1036,-0.990,-0.525
1037,-1.015,-0.520
1038,-1.030,-0.535
1039,-1.030,-0.530
1040,-1.030,-0.535
1041,-1.010,-0.520
1042,-0.995,-0.495
1043,-0.980,-0.460
1044,-0.960,-0.445
1045,-0.960,-0.430
1046,-0.965,-0.415
1047,-0.975,-0.430
1048,-0.960,-0.415
1049,-0.960,-0.440
1050,-0.975,-0.460
1051,-0.970,-0.435
1052,-0.965,-0.455
1053,-0.980,-0.445
1054,-0.975,-0.450
1055,-0.955,-0.430
1056,-0.960,-0.435
1057,-0.955,-0.425
1058,-0.940,-0.415
1059,-0.935,-0.420
1060,-0.935,-0.415
1061,-0.945,-0.425
1062,-0.960,-0.420
1063,-0.965,-0.430
1064,-0.975,-0.445
1065,-0.980,-0.435
1066,-0.975,-0.425
1067,-0.975,-0.410
1068,-0.965,-0.410
1069,-0.945,-0.395
1070,-0.960,-0.400
1071,-0.925,-0.405
1072,-0.935,-0.405
1073,-0.935,-0.415
1074,-0.935,-0.405
1075,-0.955,-0.405
1076,-0.960,-0.415
1077,-0.945,-0.415
1078,-0.975,-0.415
1079,-0.960,-0.405
1080,-0.955,-0.375
1081,-0.950,-0.385
1082,-0.925,-0.355
1083,-0.925,-0.375
1084,-0.935,-0.380
1085,-0.925,-0.405
1086,-0.945,-0.375
1087,-0.940,-0.400
1088,-0.930,-0.395
1089,-0.930,-0.400
1090,-0.930,-0.395
1091,-0.920,-0.370
1092,-0.905,-0.385
1093,-0.900,-0.345
1094,-0.885,-0.350
1095,-0.875,-0.335
1096,-0.870,-0.330
1097,-0.870,-0.335
1098,-0.885,-0.325
1099,-0.875,-0.340
1100,-0.870,-0.345
1101,-0.870,-0.330
1102,-0.865,-0.340
1103,-0.855,-0.315
1104,-0.835,-0.295
1105,-0.815,-0.290
1106,-0.790,-0.270
1107,-0.780,-0.255
1108,-0.770,-0.265
1109,-0.770,-0.275
1110,-0.765,-0.275
1111,-0.765,-0.290
1112,-0.750,-0.275
1113,-0.735,-0.265
1114,-0.735,-0.245
1115,-0.720,-0.235
1116,-0.685,-0.225
1117,-0.655,-0.200
1118,-0.635,-0.175
1119,-0.615,-0.155
1120,-0.595,-0.160
1121,-0.590,-0.165
1122,-0.585,-0.140
1123,-0.575,-0.160
1124,-0.565,-0.155
1125,-0.565,-0.150
1126,-0.550,-0.120
1127,-0.535,-0.125
1128,-0.510,-0.095
1129,-0.475,-0.085
1130,-0.465,-0.075
1131,-0.430,-0.090
1132,-0.450,-0.075
1133,-0.435,-0.070
1134,-0.455,-0.095
1135,-0.450,-0.095
1136,-0.455,-0.120
1137,-0.475,-0.115
1138,-0.485,-0.120
1139,-0.495,-0.115
1140,-0.485,-0.120
1141,-0.485,-0.140
1142,-0.490,-0.155
1143,-0.515,-0.160
1144,-0.545,-0.170
1145,-0.580,-0.185
1146,-0.610,-0.220
1147,-0.630,-0.265
1148,-0.665,-0.275
1149,-0.685,-0.285
1150,-0.710,-0.290
1151,-0.725,-0.295
1152,-0.725,-0.310
1153,-0.740,-0.320
1154,-0.740,-0.325
1155,-0.760,-0.330
1156,-0.775,-0.355
1157,-0.785,-0.370
1158,-0.800,-0.395
1159,-0.830,-0.410
1160,-0.855,-0.415
1161,-0.860,-0.425
1162,-0.865,-0.425
1163,-0.860,-0.430
1164,-0.860,-0.420
1165,-0.860,-0.425
1166,-0.845,-0.410
1167,-0.845,-0.430
1168,-0.860,-0.430
1169,-0.870,-0.450
1170,-0.870,-0.450
1171,-0.870,-0.470
1172,-0.880,-0.470
1173,-0.885,-0.470
1174,-0.890,-0.465
1175,-0.890,-0.445
1176,-0.885,-0.425
1177,-0.875,-0.425
1178,-0.865,-0.425
1179,-0.880,-0.435
1180,-0.875,-0.435
1181,-0.880,-0.440
1182,-0.875,-0.455
1183,-0.890,-0.455
1184,-0.890,-0.465
1185,-0.890,-0.465
1186,-0.895,-0.450
1187,-0.890,-0.455
1188,-0.865,-0.445
1189,-0.875,-0.440
1190,-0.860,-0.430
1191,-0.865,-0.455
1192,-0.870,-0.435
1193,-0.860,-0.440
1194,-0.860,-0.465
1195,-0.865,-0.470
1196,-0.865,-0.465
1197,-0.875,-0.475
1198,-0.890,-0.460
1199,-0.885,-0.445
1200,-0.870,-0.440
1201,-0.855,-0.440
1202,-0.845,-0.415
1203,-0.845,-0.425
1204,-0.840,-0.415
1205,-0.855,-0.420
1206,-0.865,-0.440
1207,-0.875,-0.460
1208,-0.875,-0.450
1209,-0.865,-0.450
1210,-0.855,-0.450
1211,-0.860,-0.435
1212,-0.845,-0.430
1213,-0.845,-0.410
1214,-0.835,-0.400
1215,-0.835,-0.410
1216,-0.840,-0.405
1217,-0.835,-0.420
1218,-0.845,-0.440
1219,-0.855,-0.445
1220,-0.860,-0.460
1221,-0.870,-0.460
1222,-0.875,-0.455
1223,-0.865,-0.440
1224,-0.855,-0.425
1225,-0.865,-0.425
1226,-0.860,-0.405
1227,-0.855,-0.420
1228,-0.855,-0.415
1229,-0.855,-0.430
1230,-0.875,-0.435
1231,-0.885,-0.440
1232,-0.895,-0.455
1233,-0.890,-0.445
1234,-0.895,-0.445
1235,-0.895,-0.440
1236,-0.870,-0.430
1237,-0.875,-0.410
1238,-0.865,-0.415
1239,-0.870,-0.420
1240,-0.865,-0.415
1241,-0.875,-0.435
1242,-0.885,-0.455
1243,-0.885,-0.465
1244,-0.915,-0.480
1245,-0.910,-0.485
1246,-0.915,-0.470
1247,-0.915,-0.475
1248,-0.895,-0.475
1249,-0.900,-0.450
1250,-0.885,-0.455
1251,-0.880,-0.455
1252,-0.870,-0.455
1253,-0.890,-0.455
1254,-0.900,-0.485
1255,-0.910,-0.490
1256,-0.910,-0.485
1257,-0.915,-0.500
1258,-0.925,-0.505
1259,-0.920,-0.485
1260,-0.910,-0.460
1261,-0.900,-0.445
1262,-0.895,-0.440
1263,-0.895,-0.450
1264,-0.895,-0.455
1265,-0.890,-0.460
1266,-0.890,-0.455
1267,-0.905,-0.460
1268,-0.920,-0.485
1269,-0.940,-0.480
1270,-0.935,-0.480
1271,-0.950,-0.465
1272,-0.945,-0.475
1273,-0.905,-0.455
1274,-0.900,-0.450
1275,-0.910,-0.470
1276,-0.895,-0.465
1277,-0.905,-0.475
1278,-0.935,-0.475
1279,-0.935,-0.500
1280,-0.930,-0.500
1281,-0.945,-0.495
1282,-0.945,-0.475
1283,-0.930,-0.470
1284,-0.925,-0.460
1285,-0.925,-0.455
1286,-0.905,-0.450
1287,-0.905,-0.445
1288,-0.900,-0.455
1289,-0.905,-0.450
1290,-0.915,-0.460
1291,-0.915,-0.470
1292,-0.925,-0.465
1293,-0.935,-0.490
1294,-0.930,-0.475
1295,-0.940,-0.455
1296,-0.925,-0.470
1297,-0.920,-0.465
1298,-0.915,-0.465
1299,-0.915,-0.470
1300,-0.905,-0.465
1301,-0.910,-0.475
1302,-0.910,-0.485
1303,-0.925,-0.490
1304,-0.925,-0.505
1305,-0.940,-0.485
1306,-0.950,-0.490
1307,-0.925,-0.485
1308,-0.930,-0.470
1309,-0.905,-0.465
1310,-0.905,-0.455
1311,-0.905,-0.455
1312,-0.905,-0.465
1313,-0.900,-0.460
1314,-0.920,-0.455
1315,-0.920,-0.470
1316,-0.930,-0.470
1317,-0.935,-0.460
1318,-0.940,-0.465
1319,-0.930,-0.465
1320,-0.925,-0.460
1321,-0.925,-0.460
1322,-0.920,-0.455
1323,-0.910,-0.450
1324,-0.905,-0.450
1325,-0.905,-0.460
1326,-0.915,-0.470
1327,-0.935,-0.475
1328,-0.930,-0.505
1329,-0.940,-0.480
1330,-0.945,-0.495
1331,-0.940,-0.485
1332,-0.950,-0.470
1333,-0.940,-0.465
1334,-0.940,-0.455
1335,-0.930,-0.470
1336,-0.945,-0.450
1337,-0.920,-0.470
1338,-0.945,-0.475
1339,-0.955,-0.480
1340,-0.955,-0.490
1341,-0.955,-0.485
1342,-0.955,-0.470
1343,-0.955,-0.465
1344,-0.940,-0.470
1345,-0.940,-0.455
1346,-0.935,-0.445
1347,-0.940,-0.445
1348,-0.930,-0.455
1349,-0.920,-0.465
1350,-0.925,-0.460
1351,-0.935,-0.485
1352,-0.935,-0.495
1353,-0.935,-0.480
1354,-0.935,-0.495
1355,-0.945,-0.465
1356,-0.945,-0.465
1357,-0.935,-0.470
1358,-0.930,-0.450
1359,-0.905,-0.475
1360,-0.915,-0.465
1361,-0.915,-0.480
1362,-0.935,-0.500
1363,-0.935,-0.510
1364,-0.945,-0.500
1365,-0.945,-0.505
1366,-0.950,-0.490
1367,-0.955,-0.465
1368,-0.950,-0.485
1369,-0.930,-0.455
1370,-0.905,-0.450
1371,-0.915,-0.445
1372,-0.925,-0.455
1373,-0.925,-0.460
1374,-0.930,-0.470
1375,-0.935,-0.475
1376,-0.950,-0.485
1377,-0.940,-0.485
1378,-0.945,-0.490
1379,-0.955,-0.465
1380,-0.925,-0.460
1381,-0.930,-0.460
1382,-0.915,-0.435
1383,-0.915,-0.450
1384,-0.930,-0.460
1385,-0.915,-0.490
1386,-0.930,-0.470
1387,-0.930,-0.510
1388,-0.935,-0.505
1389,-0.940,-0.495
1390,-0.940,-0.510
1391,-0.930,-0.480
1392,-0.925,-0.480
1393,-0.910,-0.450
1394,-0.910,-0.445
1395,-0.895,-0.435
1396,-0.900,-0.440
1397,-0.910,-0.470
1398,-0.915,-0.455
1399,-0.925,-0.465
1400,-0.940,-0.485
1401,-0.940,-0.480
1402,-0.940,-0.470
1403,-0.930,-0.460
1404,-0.940,-0.470
1405,-0.905,-0.440
1406,-0.895,-0.435
1407,-0.880,-0.450
1408,-0.875,-0.460
1409,-0.890,-0.460
1410,-0.895,-0.475
1411,-0.900,-0.480
1412,-0.895,-0.485
1413,-0.885,-0.475
1414,-0.855,-0.480
1415,-0.835,-0.475
1416,-0.820,-0.455
1417,-0.810,-0.460
1418,-0.795,-0.450
1419,-0.790,-0.445
1420,-0.790,-0.435
1421,-0.785,-0.450
1422,-0.770,-0.435
1423,-0.755,-0.450
1424,-0.730,-0.435
1425,-0.710,-0.435
1426,-0.705,-0.410
1427,-0.695,-0.410
1428,-0.685,-0.400
1429,-0.690,-0.380
1430,-0.695,-0.370
1431,-0.695,-0.380
1432,-0.720,-0.375
1433,-0.735,-0.395
1434,-0.750,-0.390
1435,-0.750,-0.405
1436,-0.765,-0.395
1437,-0.755,-0.390
1438,-0.765,-0.375
1439,-0.770,-0.390
1440,-0.785,-0.365
1441,-0.810,-0.395
1442,-0.840,-0.390
1443,-0.865,-0.405
1444,-0.870,-0.420
1445,-0.895,-0.435
1446,-0.920,-0.450
1447,-0.930,-0.470
1448,-0.940,-0.470
1449,-0.955,-0.470
1450,-0.970,-0.465
1451,-0.970,-0.460
1452,-0.970,-0.455
1453,-0.970,-0.425
1454,-0.950,-0.445
1455,-0.935,-0.435
1456,-0.950,-0.445
1457,-0.950,-0.445
1458,-0.960,-0.445
1459,-0.975,-0.470
1460,-0.980,-0.455
1461,-0.990,-0.485
1462,-0.995,-0.450
1463,-0.975,-0.460
1464,-0.985,-0.455
1465,-0.965,-0.455
1466,-0.950,-0.435
1467,-0.940,-0.435
1468,-0.945,-0.455
1469,-0.955,-0.460
1470,-0.950,-0.465
1471,-0.970,-0.470
1472,-0.975,-0.470
1473,-0.970,-0.485
1474,-0.965,-0.460
1475,-0.985,-0.450
1476,-0.955,-0.455
1477,-0.950,-0.440
1478,-0.945,-0.420
1479,-0.935,-0.430
1480,-0.925,-0.410
1481,-0.920,-0.430
1482,-0.930,-0.435
1483,-0.920,-0.440
1484,-0.910,-0.450
1485,-0.915,-0.440
1486,-0.915,-0.425
1487,-0.905,-0.405
1488,-0.875,-0.380
1489,-0.840,-0.360
1490,-0.805,-0.300
1491,-0.705,-0.215
1492,-0.545,-0.100
1493,-0.320,0.050
1494,-0.025,0.245
1495,0.265,0.365
1496,0.580,0.450
1497,0.895,0.510
1498,1.180,0.530
1499,1.315,0.520
1500,1.260,0.470
1501,0.990,0.350
1502,0.530,0.190
1503,-0.075,-0.085
1504,-0.710,-0.430
1505,-1.220,-0.775
1506,-1.555,-1.065
1507,-1.655,-1.215
1508,-1.570,-1.200
1509,-1.400,-1.085
1510,-1.210,-0.895
1511,-1.095,-0.730
1512,-1.035,-0.610
1513,-1.010,-0.555
1514,-1.010,-0.515
1515,-1.010,-0.520
1516,-0.985,-0.520
1517,-0.965,-0.520
1518,-0.930,-0.510
1519,-0.925,-0.505
1520,-0.940,-0.490
1521,-0.945,-0.495
1522,-0.960,-0.485
1523,-0.965,-0.475
1524,-0.955,-0.465
1525,-0.935,-0.440
1526,-0.925,-0.455
1527,-0.935,-0.430
1528,-0.920,-0.430
1529,-0.930,-0.425
1530,-0.935,-0.435
1531,-0.930,-0.435
1532,-0.935,-0.450
1533,-0.950,-0.440
1534,-0.945,-0.440
1535,-0.935,-0.425
1536,-0.945,-0.435
1537,-0.935,-0.410
1538,-0.930,-0.395
1539,-0.920,-0.390
1540,-0.925,-0.375
1541,-0.910,-0.395
1542,-0.925,-0.390
1543,-0.940,-0.415
1544,-0.930,-0.425
1545,-0.945,-0.420
1546,-0.945,-0.425
1547,-0.945,-0.420
1548,-0.935,-0.425
1549,-0.920,-0.405
1550,-0.920,-0.390
1551,-0.910,-0.400
1552,-0.910,-0.385
1553,-0.910,-0.400
1554,-0.925,-0.405
1555,-0.940,-0.405
1556,-0.950,-0.405
1557,-0.960,-0.405
1558,-0.950,-0.400
1559,-0.920,-0.385
1560,-0.920,-0.370
1561,-0.910,-0.380
1562,-0.885,-0.360
1563,-0.875,-0.355
1564,-0.880,-0.370
1565,-0.885,-0.370
1566,-0.885,-0.380
1567,-0.895,-0.395
1568,-0.890,-0.385
1569,-0.900,-0.390
1570,-0.895,-0.380
1571,-0.880,-0.360
1572,-0.885,-0.350
1573,-0.865,-0.350
1574,-0.855,-0.345
1575,-0.845,-0.345
1576,-0.835,-0.345
1577,-0.835,-0.360
1578,-0.840,-0.340
1579,-0.820,-0.345
1580,-0.810,-0.355
1581,-0.820,-0.340
1582,-0.810,-0.315
1583,-0.800,-0.305
1584,-0.785,-0.290
1585,-0.770,-0.285
1586,-0.755,-0.255
1587,-0.730,-0.265
1588,-0.720,-0.255
1589,-0.700,-0.240
1590,-0.690,-0.245
1591,-0.685,-0.255
1592,-0.685,-0.250
1593,-0.675,-0.235
1594,-0.670,-0.230
1595,-0.645,-0.210
1596,-0.640,-0.190
1597,-0.620,-0.165
1598,-0.595,-0.165
1599,-0.575,-0.165
1600,-0.555,-0.150
1601,-0.530,-0.150
1602,-0.545,-0.155
1603,-0.530,-0.160
1604,-0.520,-0.160
1605,-0.530,-0.170
1606,-0.520,-0.145
1607,-0.495,-0.130
1608,-0.480,-0.120
1609,-0.460,-0.115
1610,-0.455,-0.105
1611,-0.455,-0.105
1612,-0.425,-0.085
1613,-0.420,-0.105
1614,-0.425,-0.110
1615,-0.450,-0.130
1616,-0.465,-0.140
1617,-0.470,-0.150
1618,-0.490,-0.145
1619,-0.495,-0.145
1620,-0.535,-0.155
1621,-0.545,-0.160
1622,-0.555,-0.160
1623,-0.545,-0.180
1624,-0.570,-0.195
1625,-0.590,-0.230
1626,-0.640,-0.250
1627,-0.670,-0.275
1628,-0.700,-0.320
1629,-0.720,-0.330
1630,-0.735,-0.335
1631,-0.750,-0.360
1632,-0.770,-0.360
1633,-0.800,-0.375
1634,-0.805,-0.375
1635,-0.800,-0.390
1636,-0.810,-0.385
1637,-0.825,-0.390
1638,-0.840,-0.405
1639,-0.845,-0.420
1640,-0.865,-0.415
1641,-0.880,-0.420
1642,-0.890,-0.435
1643,-0.900,-0.430
1644,-0.895,-0.430
1645,-0.900,-0.415
1646,-0.880,-0.420
1647,-0.875,-0.425
1648,-0.885,-0.425
1649,-0.895,-0.440
1650,-0.895,-0.435
1651,-0.910,-0.435
1652,-0.915,-0.460
1653,-0.925,-0.460
1654,-0.925,-0.455
1655,-0.920,-0.455
1656,-0.915,-0.455
1657,-0.905,-0.455
1658,-0.900,-0.450
1659,-0.880,-0.440
1660,-0.880,-0.445
1661,-0.885,-0.455
1662,-0.880,-0.450
1663,-0.900,-0.455
1664,-0.910,-0.475
1665,-0.915,-0.470
1666,-0.925,-0.475
1667,-0.915,-0.450
1668,-0.915,-0.455
1669,-0.895,-0.415
1670,-0.895,-0.415
1671,-0.875,-0.410
1672,-0.870,-0.410
1673,-0.875,-0.420
1674,-0.880,-0.435
1675,-0.900,-0.445
1676,-0.910,-0.460
1677,-0.900,-0.455
1678,-0.900,-0.455
1679,-0.900,-0.445
1680,-0.890,-0.445
1681,-0.885,-0.455
1682,-0.895,-0.440
1683,-0.865,-0.430
1684,-0.860,-0.420
1685,-0.870,-0.420
1686,-0.865,-0.425
1687,-0.880,-0.435
1688,-0.890,-0.445
1689,-0.900,-0.450
1690,-0.900,-0.440
1691,-0.900,-0.435
1692,-0.890,-0.430
1693,-0.880,-0.410
1694,-0.865,-0.395
1695,-0.875,-0.405
1696,-0.875,-0.400
1697,-0.865,-0.410
1698,-0.875,-0.410
1699,-0.890,-0.435
1700,-0.905,-0.430
1701,-0.890,-0.435
1702,-0.900,-0.440
1703,-0.905,-0.425
1704,-0.900,-0.430
1705,-0.905,-0.415
1706,-0.895,-0.405
1707,-0.900,-0.405
1708,-0.900,-0.415
1709,-0.900,-0.435
1710,-0.910,-0.440
1711,-0.920,-0.445
1712,-0.915,-0.460
1713,-0.940,-0.450
1714,-0.945,-0.475
1715,-0.955,-0.465
1716,-0.950,-0.455
1717,-0.935,-0.445
1718,-0.930,-0.425
1719,-0.910,-0.435
1720,-0.910,-0.430
1721,-0.925,-0.430
1722,-0.945,-0.440
1723,-0.960,-0.450
1724,-0.955,-0.455
1725,-0.955,-0.455
1726,-0.960,-0.460
1727,-0.965,-0.450
1728,-0.950,-0.445
1729,-0.955,-0.435
1730,-0.935,-0.405
1731,-0.945,-0.425
1732,-0.925,-0.435
1733,-0.920,-0.440
1734,-0.925,-0.460
1735,-0.935,-0.465
1736,-0.950,-0.475
1737,-0.955,-0.475
1738,-0.960,-0.470
1739,-0.965,-0.470
1740,-0.955,-0.455
1741,-0.945,-0.465
1742,-0.930,-0.435
1743,-0.915,-0.430
1744,-0.920,-0.425
1745,-0.935,-0.450
1746,-0.945,-0.460
1747,-0.955,-0.470
1748,-0.970,-0.470
1749,-0.975,-0.470
1750,-0.965,-0.485
1751,-0.955,-0.470
1752,-0.940,-0.450
1753,-0.950,-0.445
1754,-0.945,-0.425
1755,-0.935,-0.430
1756,-0.935,-0.430
1757,-0.935,-0.435
1758,-0.960,-0.465
1759,-0.960,-0.480
1760,-0.955,-0.475
1761,-0.970,-0.465
1762,-0.965,-0.465
1763,-0.960,-0.470
1764,-0.960,-0.470
1765,-0.950,-0.455
1766,-0.945,-0.465
1767,-0.925,-0.460
1768,-0.930,-0.450
1769,-0.910,-0.455
1770,-0.925,-0.470
1771,-0.940,-0.480
1772,-0.940,-0.480
1773,-0.960,-0.475
1774,-0.960,-0.470
1775,-0.955,-0.470
1776,-0.950,-0.460
1777,-0.950,-0.470
1778,-0.940,-0.445
1779,-0.935,-0.440
1780,-0.935,-0.440
1781,-0.930,-0.450
1782,-0.935,-0.460
1783,-0.930,-0.460
1784,-0.945,-0.475
1785,-0.940,-0.475
1786,-0.950,-0.475
1787,-0.950,-0.480
1788,-0.950,-0.480
1789,-0.945,-0.465
1790,-0.925,-0.465
1791,-0.925,-0.445
1792,-0.925,-0.455
1793,-0.930,-0.460
1794,-0.945,-0.460
1795,-0.950,-0.470
1796,-0.955,-0.480
1797,-0.955,-0.490
1798,-0.960,-0.485
1799,-0.955,-0.475
1800,-0.955,-0.465
1801,-0.935,-0.440
1802,-0.930,-0.440
1803,-0.920,-0.440
1804,-0.905,-0.440
1805,-0.905,-0.435
1806,-0.915,-0.445
1807,-0.930,-0.455
1808,-0.950,-0.465
1809,-0.975,-0.475
1810,-0.960,-0.465
1811,-0.955,-0.470
1812,-0.960,-0.440
1813,-0.940,-0.440
1814,-0.920,-0.420
1815,-0.905,-0.420
1816,-0.910,-0.435
1817,-0.895,-0.440
1818,-0.920,-0.445
1819,-0.935,-0.460
1820,-0.950,-0.480
1821,-0.940,-0.475
1822,-0.940,-0.485
1823,-0.955,-0.465
1824,-0.940,-0.450
1825,-0.925,-0.450
1826,-0.910,-0.445
1827,-0.915,-0.440
1828,-0.920,-0.430
1829,-0.920,-0.425
1830,-0.930,-0.430
1831,-0.925,-0.450
1832,-0.930,-0.455
1833,-0.930,-0.460
1834,-0.930,-0.455
1835,-0.915,-0.445
1836,-0.920,-0.455
1837,-0.920,-0.420
1838,-0.880,-0.405
1839,-0.865,-0.425
1840,-0.845,-0.425
1841,-0.825,-0.430
1842,-0.810,-0.435
1843,-0.825,-0.455
1844,-0.830,-0.450
1845,-0.825,-0.465
1846,-0.825,-0.475
1847,-0.820,-0.470
1848,-0.800,-0.460
1849,-0.780,-0.430
1850,-0.730,-0.415
1851,-0.695,-0.390
1852,-0.680,-0.405
1853,-0.675,-0.380
1854,-0.670,-0.385
1855,-0.690,-0.390
1856,-0.710,-0.400
1857,-0.740,-0.405
1858,-0.760,-0.395
1859,-0.790,-0.395
1860,-0.770,-0.360
1861,-0.760,-0.365
1862,-0.740,-0.355
1863,-0.735,-0.335
1864,-0.745,-0.345
1865,-0.770,-0.365
1866,-0.800,-0.355
1867,-0.855,-0.385
1868,-0.895,-0.425
1869,-0.925,-0.440
1870,-0.940,-0.435
1871,-0.940,-0.435
1872,-0.945,-0.430
1873,-0.935,-0.420
1874,-0.945,-0.425
1875,-0.945,-0.425
1876,-0.950,-0.425
1877,-0.960,-0.430
1878,-0.970,-0.455
1879,-0.970,-0.465
1880,-0.985,-0.475
1881,-0.995,-0.470
1882,-1.010,-0.460
1883,-0.995,-0.440
1884,-1.005,-0.430
1885,-0.990,-0.420
1886,-0.985,-0.415
1887,-0.955,-0.420
1888,-0.955,-0.420
1889,-0.955,-0.415
1890,-0.970,-0.405
1891,-0.980,-0.415
1892,-0.995,-0.420
1893,-0.990,-0.445
1894,-0.995,-0.460
1895,-1.005,-0.440
1896,-0.985,-0.440
1897,-0.975,-0.440
1898,-0.955,-0.420
1899,-0.950,-0.415
1900,-0.935,-0.420
1901,-0.955,-0.430
1902,-0.945,-0.425
1903,-0.950,-0.430
1904,-0.955,-0.440
1905,-0.945,-0.450
1906,-0.965,-0.445
1907,-0.950,-0.435
1908,-0.930,-0.430
1909,-0.920,-0.405
1910,-0.895,-0.390
1911,-0.890,-0.385
1912,-0.870,-0.400
1913,-0.860,-0.380
1914,-0.860,-0.365
1915,-0.870,-0.355
1916,-0.875,-0.335
1917,-0.820,-0.285
1918,-0.685,-0.185
1919,-0.480,-0.030
1920,-0.190,0.180
1921,0.110,0.355
1922,0.425,0.510
1923,0.750,0.600
1924,1.060,0.625
1925,1.285,0.620
1926,1.310,0.545
1927,1.130,0.410
1928,0.745,0.230
1929,0.180,-0.005
1930,-0.460,-0.315
1931,-1.070,-0.655
1932,-1.520,-0.985
1933,-1.750,-1.215
1934,-1.780,-1.300
1935,-1.665,-1.260
1936,-1.490,-1.115
1937,-1.325,-0.950
1938,-1.220,-0.815
1939,-1.165,-0.705
1940,-1.125,-0.630
1941,-1.100,-0.580
1942,-1.060,-0.550
1943,-1.030,-0.505
1944,-0.990,-0.505
1945,-0.955,-0.470
1946,-0.930,-0.450
1947,-0.930,-0.455
1948,-0.940,-0.450
1949,-0.935,-0.440
1950,-0.940,-0.445
1951,-0.945,-0.425
1952,-0.940,-0.425
1953,-0.950,-0.440
1954,-0.955,-0.425
1955,-0.955,-0.425
1956,-0.970,-0.415
1957,-0.965,-0.395
1958,-0.940,-0.385
1959,-0.935,-0.370
1960,-0.935,-0.390
1961,-0.905,-0.385
1962,-0.910,-0.395
1963,-0.935,-0.410
1964,-0.935,-0.415
1965,-0.945,-0.400
1966,-0.950,-0.400
1967,-0.950,-0.390
1968,-0.945,-0.380
1969,-0.930,-0.350
1970,-0.920,-0.345
1971,-0.920,-0.335
1972,-0.915,-0.360
1973,-0.905,-0.350
1974,-0.905,-0.375
1975,-0.935,-0.385
1976,-0.940,-0.380
1977,-0.955,-0.390
1978,-0.960,-0.395
1979,-0.955,-0.395
1980,-0.945,-0.385
1981,-0.930,-0.385
1982,-0.935,-0.370
1983,-0.910,-0.355
1984,-0.900,-0.355
1985,-0.900,-0.365
1986,-0.915,-0.360
1987,-0.925,-0.355
1988,-0.930,-0.370
1989,-0.960,-0.365
1990,-0.955,-0.355
1991,-0.940,-0.355
1992,-0.940,-0.360
1993,-0.915,-0.350
1994,-0.910,-0.335
1995,-0.900,-0.330
1996,-0.875,-0.330
1997,-0.870,-0.330
1998,-0.875,-0.345
1999,-0.870,-0.335
2000,-0.885,-0.340
2001,-0.885,-0.330
2002,-0.885,-0.340
2003,-0.875,-0.335
2004,-0.865,-0.310
2005,-0.850,-0.305
2006,-0.835,-0.290
2007,-0.785,-0.285
2008,-0.770,-0.285
2009,-0.765,-0.275
2010,-0.775,-0.275
2011,-0.775,-0.270
2012,-0.775,-0.275
2013,-0.770,-0.250
2014,-0.760,-0.230
2015,-0.755,-0.225
2016,-0.745,-0.210
2017,-0.705,-0.190
2018,-0.685,-0.165
2019,-0.650,-0.155
2020,-0.645,-0.160
2021,-0.630,-0.160
2022,-0.635,-0.160
2023,-0.625,-0.150
2024,-0.630,-0.160
2025,-0.610,-0.155
2026,-0.605,-0.140
2027,-0.590,-0.135
2028,-0.570,-0.115
2029,-0.550,-0.105
2030,-0.530,-0.095
2031,-0.495,-0.105
2032,-0.480,-0.110
2033,-0.480,-0.095
2034,-0.470,-0.105
2035,-0.470,-0.120
2036,-0.490,-0.120
2037,-0.495,-0.130
2038,-0.505,-0.125
2039,-0.500,-0.110
2040,-0.515,-0.100
2041,-0.505,-0.100
2042,-0.490,-0.105
2043,-0.500,-0.100
2044,-0.520,-0.125
2045,-0.560,-0.130
2046,-0.570,-0.160
2047,-0.610,-0.180
2048,-0.640,-0.240
2049,-0.650,-0.240
2050,-0.675,-0.260
2051,-0.710,-0.285
2052,-0.705,-0.275
2053,-0.720,-0.285
2054,-0.750,-0.285
2055,-0.750,-0.280
2056,-0.760,-0.305
2057,-0.775,-0.330
2058,-0.790,-0.345
2059,-0.810,-0.360
2060,-0.835,-0.385
2061,-0.860,-0.375
2062,-0.865,-0.395
2063,-0.870,-0.395
2064,-0.885,-0.390
2065,-0.860,-0.385
2066,-0.860,-0.390
2067,-0.850,-0.385
2068,-0.845,-0.380
2069,-0.850,-0.390
2070,-0.870,-0.385
2071,-0.880,-0.400
2072,-0.885,-0.415
2073,-0.895,-0.420
2074,-0.905,-0.420
2075,-0.895,-0.400
2076,-0.885,-0.395
2077,-0.875,-0.385
2078,-0.870,-0.385
2079,-0.865,-0.380
2080,-0.870,-0.375
2081,-0.865,-0.390
2082,-0.870,-0.405
2083,-0.885,-0.410
2084,-0.885,-0.425
2085,-0.900,-0.430
2086,-0.900,-0.420
2087,-0.885,-0.445
2088,-0.880,-0.420
2089,-0.885,-0.420
2090,-0.880,-0.400
2091,-0.875,-0.395
2092,-0.870,-0.395
2093,-0.880,-0.390
2094,-0.865,-0.390
2095,-0.855,-0.395
2096,-0.850,-0.385
2097,-0.880,-0.395
2098,-0.880,-0.395
2099,-0.865,-0.395
2100,-0.865,-0.390
2101,-0.835,-0.370
2102,-0.845,-0.360
2103,-0.830,-0.360
2104,-0.815,-0.360
2105,-0.825,-0.365
2106,-0.820,-0.355
2107,-0.840,-0.385
2108,-0.835,-0.375
2109,-0.840,-0.410
2110,-0.840,-0.375
2111,-0.850,-0.400
2112,-0.850,-0.385
2113,-0.845,-0.375
2114,-0.815,-0.375
2115,-0.820,-0.365
2116,-0.810,-0.370
2117,-0.820,-0.360
2118,-0.830,-0.360
2119,-0.835,-0.385
2120,-0.850,-0.380
2121,-0.855,-0.405
2122,-0.855,-0.395
2123,-0.860,-0.390
2124,-0.845,-0.380
2125,-0.840,-0.380
2126,-0.820,-0.355
2127,-0.820,-0.345
2128,-0.820,-0.365
2129,-0.815,-0.375
2130,-0.825,-0.370
2131,-0.850,-0.390
2132,-0.845,-0.400
2133,-0.870,-0.410
2134,-0.875,-0.395
2135,-0.885,-0.395
2136,-0.870,-0.400
2137,-0.850,-0.400
2138,-0.860,-0.380
2139,-0.845,-0.385
2140,-0.830,-0.380
2141,-0.830,-0.395
2142,-0.840,-0.420
2143,-0.860,-0.425
2144,-0.870,-0.445
2145,-0.880,-0.450
2146,-0.880,-0.435
2147,-0.875,-0.435
2148,-0.880,-0.430
2149,-0.870,-0.425
2150,-0.865,-0.400
2151,-0.860,-0.395
2152,-0.880,-0.415
2153,-0.865,-0.405
2154,-0.865,-0.415
2155,-0.875,-0.430
2156,-0.890,-0.430
2157,-0.890,-0.440
2158,-0.910,-0.435
2159,-0.895,-0.435
2160,-0.900,-0.430
2161,-0.875,-0.425
2162,-0.880,-0.430
2163,-0.870,-0.425
2164,-0.880,-0.425
2165,-0.865,-0.425
2166,-0.865,-0.425
2167,-0.885,-0.440
2168,-0.890,-0.460
2169,-0.890,-0.460
2170,-0.900,-0.470
2171,-0.900,-0.470
2172,-0.885,-0.450
2173,-0.900,-0.460
2174,-0.895,-0.455
2175,-0.890,-0.445
2176,-0.875,-0.455
2177,-0.895,-0.465
2178,-0.895,-0.460
2179,-0.900,-0.455
2180,-0.905,-0.470
2181,-0.905,-0.475
2182,-0.905,-0.475
2183,-0.905,-0.460
2184,-0.910,-0.450
2185,-0.895,-0.450
2186,-0.885,-0.460
2187,-0.880,-0.435
2188,-0.895,-0.455
2189,-0.880,-0.450
2190,-0.885,-0.465
2191,-0.880,-0.455
2192,-0.885,-0.470
2193,-0.890,-0.475
2194,-0.900,-0.485
2195,-0.885,-0.470
2196,-0.915,-0.475
2197,-0.905,-0.460
2198,-0.905,-0.450
2199,-0.875,-0.455
2200,-0.880,-0.480
2201,-0.890,-0.475
2202,-0.880,-0.485
2203,-0.900,-0.500
2204,-0.895,-0.510
2205,-0.910,-0.495
2206,-0.925,-0.495
2207,-0.925,-0.480
2208,-0.910,-0.470
2209,-0.890,-0.470
2210,-0.895,-0.465
2211,-0.870,-0.460
2212,-0.880,-0.470
2213,-0.870,-0.475
2214,-0.880,-0.485
2215,-0.885,-0.480
2216,-0.885,-0.490
2217,-0.905,-0.495
2218,-0.905,-0.500
2219,-0.915,-0.495
2220,-0.895,-0.480
2221,-0.890,-0.475
2222,-0.880,-0.470
2223,-0.890,-0.475
2224,-0.875,-0.485
2225,-0.880,-0.475
2226,-0.880,-0.505
2227,-0.875,-0.505
2228,-0.895,-0.520
2229,-0.900,-0.520
2230,-0.905,-0.520
2231,-0.900,-0.520
2232,-0.910,-0.505
2233,-0.900,-0.485
2234,-0.895,-0.485
2235,-0.875,-0.470
2236,-0.870,-0.495
2237,-0.875,-0.485
2238,-0.885,-0.490
2239,-0.895,-0.500
2240,-0.895,-0.510
2241,-0.895,-0.500
2242,-0.905,-0.515
2243,-0.900,-0.520
2244,-0.900,-0.495
2245,-0.885,-0.490
2246,-0.875,-0.475
2247,-0.860,-0.475
2248,-0.835,-0.485
2249,-0.820,-0.485
2250,-0.815,-0.505
2251,-0.825,-0.510
2252,-0.815,-0.520
2253,-0.815,-0.520
2254,-0.815,-0.515
2255,-0.800,-0.520
2256,-0.805,-0.490
2257,-0.795,-0.500
2258,-0.785,-0.505
2259,-0.750,-0.485
2260,-0.715,-0.485
2261,-0.705,-0.465
2262,-0.670,-0.470
2263,-0.675,-0.470
2264,-0.690,-0.460
2265,-0.685,-0.465
2266,-0.695,-0.485
2267,-0.740,-0.455
2268,-0.720,-0.470
2269,-0.725,-0.435
2270,-0.710,-0.430
2271,-0.715,-0.425
2272,-0.710,-0.415
2273,-0.735,-0.400
2274,-0.735,-0.415
2275,-0.760,-0.420
2276,-0.765,-0.445
2277,-0.800,-0.455
2278,-0.830,-0.465
2279,-0.880,-0.480
2280,-0.905,-0.480
2281,-0.910,-0.490
2282,-0.930,-0.500
2283,-0.910,-0.500
2284,-0.915,-0.495
2285,-0.920,-0.510
2286,-0.930,-0.515
2287,-0.945,-0.535
2288,-0.955,-0.540
2289,-0.975,-0.550
2290,-0.975,-0.535
2291,-0.975,-0.535
2292,-0.970,-0.515
2293,-0.965,-0.520
2294,-0.975,-0.495
2295,-0.970,-0.495
2296,-0.950,-0.495
2297,-0.965,-0.515
2298,-0.975,-0.510
2299,-0.990,-0.535
2300,-1.005,-0.540
2301,-1.000,-0.550
2302,-1.010,-0.535
2303,-1.005,-0.520
2304,-0.985,-0.520
2305,-0.990,-0.525
2306,-0.965,-0.505
2307,-0.955,-0.515
2308,-0.950,-0.520
2309,-0.945,-0.520
2310,-0.955,-0.530
2311,-0.955,-0.530
2312,-0.960,-0.545
2313,-0.970,-0.545
2314,-0.965,-0.555
2315,-0.960,-0.540
2316,-0.940,-0.540
2317,-0.960,-0.525
2318,-0.925,-0.515
2319,-0.925,-0.505
2320,-0.920,-0.505
2321,-0.935,-0.510
2322,-0.920,-0.495
2323,-0.925,-0.515
2324,-0.920,-0.525
2325,-0.940,-0.510
2326,-0.925,-0.510
2327,-0.905,-0.510
2328,-0.880,-0.475
2329,-0.840,-0.440
2330,-0.810,-0.415
2331,-0.735,-0.340
2332,-0.610,-0.255
2333,-0.405,-0.140
2334,-0.165,0.000
2335,0.080,0.190
2336,0.340,0.310
2337,0.605,0.370
2338,0.895,0.395
2339,1.150,0.405
2340,1.365,0.390
2341,1.400,0.385
2342,1.255,0.330
2343,0.945,0.220
2344,0.470,0.035
2345,-0.120,-0.230
2346,-0.755,-0.555
2347,-1.300,-0.900
2348,-1.655,-1.210
2349,-1.760,-1.385
2350,-1.700,-1.395
2351,-1.520,-1.295
2352,-1.330,-1.115
2353,-1.170,-0.915
2354,-1.085,-0.790
2355,-1.060,-0.690
2356,-1.070,-0.655
2357,-1.075,-0.630
2358,-1.060,-0.645
2359,-1.050,-0.635
2360,-1.005,-0.620
2361,-0.985,-0.620
2362,-0.950,-0.585
2363,-0.955,-0.580
2364,-0.945,-0.560
2365,-0.945,-0.540
2366,-0.950,-0.525
2367,-0.935,-0.535
2368,-0.940,-0.520
2369,-0.935,-0.525
2370,-0.940,-0.505
2371,-0.950,-0.535
2372,-0.960,-0.545
2373,-0.955,-0.525
2374,-0.970,-0.520
2375,-0.965,-0.510
2376,-0.945,-0.510
2377,-0.940,-0.500
2378,-0.925,-0.470
2379,-0.925,-0.470
2380,-0.925,-0.475
2381,-0.935,-0.485
2382,-0.940,-0.490
2383,-0.940,-0.480
2384,-0.945,-0.490
2385,-0.950,-0.500
2386,-0.960,-0.505
2387,-0.950,-0.480
2388,-0.955,-0.495
2389,-0.945,-0.485
2390,-0.945,-0.470
2391,-0.935,-0.465
2392,-0.910,-0.470
2393,-0.925,-0.470
2394,-0.915,-0.485
2395,-0.925,-0.495
2396,-0.935,-0.515
2397,-0.940,-0.520
2398,-0.950,-0.515
2399,-0.965,-0.500
2400,-0.950,-0.495
2401,-0.930,-0.475
2402,-0.925,-0.455
2403,-0.915,-0.450
2404,-0.905,-0.445
2405,-0.905,-0.450
2406,-0.905,-0.455
2407,-0.905,-0.470
2408,-0.915,-0.470
2409,-0.915,-0.485
2410,-0.920,-0.465
2411,-0.920,-0.460
2412,-0.905,-0.455
2413,-0.900,-0.450
2414,-0.885,-0.440
2415,-0.885,-0.415
2416,-0.875,-0.420
2417,-0.855,-0.420
2418,-0.855,-0.430
2419,-0.855,-0.435
2420,-0.875,-0.445
2421,-0.860,-0.435
2422,-0.855,-0.440
2423,-0.850,-0.425
2424,-0.840,-0.420
2425,-0.820,-0.400
2426,-0.795,-0.385
2427,-0.770,-0.355
2428,-0.775,-0.350
2429,-0.755,-0.360
2430,-0.750,-0.330
2431,-0.730,-0.345
2432,-0.745,-0.340
2433,-0.725,-0.335
2434,-0.715,-0.325
2435,-0.700,-0.310
2436,-0.675,-0.285
2437,-0.645,-0.290
2438,-0.620,-0.255
2439,-0.600,-0.240
2440,-0.575,-0.230
2441,-0.560,-0.230
2442,-0.545,-0.220
2443,-0.530,-0.225
2444,-0.525,-0.230
2445,-0.525,-0.235
2446,-0.505,-0.230
2447,-0.490,-0.220
2448,-0.480,-0.200
2449,-0.455,-0.185
2450,-0.430,-0.180
2451,-0.410,-0.165
2452,-0.400,-0.170
2453,-0.390,-0.160
2454,-0.390,-0.170
2455,-0.400,-0.175
2456,-0.415,-0.175
2457,-0.415,-0.180
2458,-0.440,-0.190
2459,-0.445,-0.195
2460,-0.460,-0.210
2461,-0.460,-0.220
2462,-0.465,-0.225
2463,-0.490,-0.225
2464,-0.520,-0.255
2465,-0.545,-0.280
2466,-0.575,-0.290
2467,-0.600,-0.325
2468,-0.645,-0.360
2469,-0.665,-0.385
2470,-0.695,-0.405
2471,-0.725,-0.420
2472,-0.750,-0.425
2473,-0.755,-0.435
2474,-0.770,-0.455
2475,-0.775,-0.445
2476,-0.785,-0.465
2477,-0.800,-0.475
2478,-0.820,-0.495
2479,-0.835,-0.515
2480,-0.855,-0.535
2481,-0.880,-0.550
2482,-0.870,-0.545
2483,-0.880,-0.545
2484,-0.885,-0.530
2485,-0.875,-0.505
2486,-0.875,-0.520
2487,-0.875,-0.510
2488,-0.870,-0.530
2489,-0.870,-0.525
2490,-0.890,-0.545
2491,-0.885,-0.560
2492,-0.910,-0.570
2493,-0.900,-0.555
2494,-0.910,-0.565
2495,-0.925,-0.570
2496,-0.920,-0.560
2497,-0.920,-0.540
2498,-0.900,-0.530
2499,-0.895,-0.540
2500,-0.895,-0.540
2501,-0.890,-0.540
2502,-0.895,-0.555
2503,-0.915,-0.580
2504,-0.925,-0.565
2505,-0.930,-0.585
2506,-0.925,-0.575
2507,-0.930,-0.580
2508,-0.925,-0.570
2509,-0.910,-0.560
2510,-0.910,-0.550
2511,-0.890,-0.535
2512,-0.890,-0.540
2513,-0.885,-0.550
2514,-0.890,-0.560
2515,-0.890,-0.545
2516,-0.890,-0.560
2517,-0.910,-0.560
2518,-0.910,-0.560
2519,-0.905,-0.545
2520,-0.910,-0.550
2521,-0.910,-0.530
2522,-0.885,-0.520
2523,-0.880,-0.505
2524,-0.870,-0.535
2525,-0.865,-0.515
2526,-0.855,-0.530
2527,-0.875,-0.530
2528,-0.885,-0.560
2529,-0.890,-0.560
2530,-0.915,-0.555
2531,-0.915,-0.570
2532,-0.895,-0.535
2533,-0.885,-0.545
2534,-0.885,-0.525
2535,-0.875,-0.510
2536,-0.850,-0.500
2537,-0.865,-0.500
2538,-0.860,-0.495
2539,-0.875,-0.525
2540,-0.885,-0.525
2541,-0.890,-0.535
2542,-0.900,-0.535
2543,-0.905,-0.530
2544,-0.890,-0.535
2545,-0.890,-0.525
2546,-0.880,-0.515
2547,-0.875,-0.495
2548,-0.875,-0.520
2549,-0.875,-0.510
2550,-0.895,-0.515
2551,-0.895,-0.520
2552,-0.915,-0.545
2553,-0.930,-0.545
2554,-0.920,-0.550
2555,-0.925,-0.550
2556,-0.925,-0.555
2557,-0.920,-0.550
2558,-0.920,-0.525
2559,-0.910,-0.535
2560,-0.910,-0.545
2561,-0.915,-0.540
2562,-0.910,-0.545
2563,-0.925,-0.555
2564,-0.955,-0.555
2565,-0.965,-0.570
2566,-0.970,-0.575
2567,-0.955,-0.585
2568,-0.950,-0.570
2569,-0.950,-0.560
2570,-0.940,-0.560
2571,-0.925,-0.530
2572,-0.925,-0.570
2573,-0.935,-0.565
2574,-0.935,-0.570
2575,-0.950,-0.570
2576,-0.955,-0.590
2577,-0.970,-0.595
2578,-0.960,-0.590
2579,-0.965,-0.590
2580,-0.970,-0.575
2581,-0.955,-0.580
2582,-0.955,-0.580
2583,-0.940,-0.565
2584,-0.925,-0.580
2585,-0.925,-0.590
2586,-0.925,-0.590
2587,-0.950,-0.600
2588,-0.960,-0.610
2589,-0.960,-0.600
2590,-0.975,-0.615
2591,-0.975,-0.600
2592,-0.985,-0.590
2593,-0.975,-0.575
2594,-0.960,-0.570
2595,-0.945,-0.545
2596,-0.940,-0.575
2597,-0.950,-0.585
2598,-0.945,-0.585
2599,-0.960,-0.590
2600,-0.960,-0.620
2601,-0.975,-0.625
2602,-0.980,-0.610
2603,-0.980,-0.610
2604,-0.970,-0.595
2605,-0.970,-0.585
2606,-0.960,-0.580
2607,-0.955,-0.560
2608,-0.940,-0.585
2609,-0.955,-0.590
2610,-0.970,-0.595
2611,-0.980,-0.615
2612,-0.980,-0.625
2613,-0.980,-0.630
2614,-0.990,-0.625
2615,-1.000,-0.630
2616,-0.980,-0.615
2617,-0.990,-0.605
2618,-0.980,-0.600
2619,-0.960,-0.585
2620,-0.950,-0.585
2621,-0.950,-0.590
2622,-0.965,-0.600
2623,-0.955,-0.605
2624,-0.965,-0.610
2625,-0.975,-0.620
2626,-0.975,-0.615
2627,-0.985,-0.605
2628,-0.975,-0.590
2629,-0.985,-0.600
2630,-0.980,-0.570
2631,-0.970,-0.590
2632,-0.960,-0.600
2633,-0.965,-0.605
2634,-0.970,-0.605
2635,-0.985,-0.615
2636,-0.980,-0.615
2637,-0.995,-0.630
2638,-1.010,-0.630
2639,-1.020,-0.615
2640,-1.020,-0.620
2641,-0.990,-0.620
2642,-0.995,-0.605
2643,-0.980,-0.610
2644,-0.980,-0.600
2645,-0.965,-0.610
2646,-0.970,-0.610
2647,-0.970,-0.620
2648,-0.985,-0.640
2649,-0.990,-0.620
2650,-0.990,-0.630
2651,-0.985,-0.625
2652,-1.000,-0.615
2653,-1.010,-0.605
2654,-1.000,-0.595
2655,-0.975,-0.590
2656,-0.955,-0.580
2657,-0.955,-0.600
2658,-0.955,-0.605
2659,-0.975,-0.615
2660,-0.995,-0.625
2661,-0.995,-0.630
2662,-1.010,-0.625
2663,-1.000,-0.615
2664,-0.990,-0.615
2665,-0.990,-0.610
2666,-0.975,-0.600
2667,-0.975,-0.580
2668,-0.965,-0.585
2669,-0.960,-0.595
2670,-0.970,-0.620
2671,-0.975,-0.620
2672,-0.970,-0.630
2673,-0.990,-0.630
2674,-0.995,-0.620
2675,-0.985,-0.635
2676,-0.990,-0.625
2677,-0.990,-0.605
2678,-0.975,-0.595
2679,-0.950,-0.600
2680,-0.950,-0.585
2681,-0.950,-0.585
2682,-0.950,-0.605
2683,-0.955,-0.595
2684,-0.965,-0.625
2685,-0.980,-0.620
2686,-0.985,-0.620
2687,-0.970,-0.620
2688,-0.975,-0.615
2689,-0.965,-0.615
2690,-0.955,-0.605
2691,-0.940,-0.590
2692,-0.945,-0.605
2693,-0.935,-0.610
2694,-0.975,-0.610
2695,-0.995,-0.630
2696,-0.990,-0.615
2697,-0.990,-0.635
2698,-0.985,-0.650
2699,-0.990,-0.635
2700,-0.960,-0.610
2701,-0.970,-0.620
2702,-0.970,-0.605
2703,-0.950,-0.600
2704,-0.945,-0.575
2705,-0.940,-0.600
2706,-0.945,-0.600
2707,-0.945,-0.610
2708,-0.955,-0.620
2709,-0.975,-0.625
2710,-0.985,-0.625
2711,-0.985,-0.625
2712,-0.980,-0.615
2713,-0.960,-0.595
2714,-0.960,-0.580
2715,-0.965,-0.575
2716,-0.945,-0.585
2717,-0.940,-0.580
2718,-0.950,-0.590
2719,-0.950,-0.605
2720,-0.960,-0.615
2721,-0.980,-0.615
2722,-0.990,-0.620
2723,-0.970,-0.625
2724,-0.980,-0.625
2725,-0.960,-0.615
2726,-0.945,-0.600
2727,-0.945,-0.585
2728,-0.930,-0.575
2729,-0.945,-0.575
2730,-0.940,-0.585
2731,-0.945,-0.600
2732,-0.950,-0.590
2733,-0.950,-0.610
2734,-0.950,-0.615
2735,-0.950,-0.615
2736,-0.935,-0.590
2737,-0.905,-0.585
2738,-0.880,-0.580
2739,-0.860,-0.560
2740,-0.840,-0.575
2741,-0.835,-0.570
2742,-0.815,-0.570
2743,-0.820,-0.580
2744,-0.840,-0.585
2745,-0.840,-0.600
2746,-0.830,-0.615
2747,-0.815,-0.600
2748,-0.785,-0.585
2749,-0.760,-0.560
2750,-0.730,-0.565
2751,-0.705,-0.530
2752,-0.710,-0.525
2753,-0.720,-0.530
2754,-0.735,-0.540
2755,-0.740,-0.550
2756,-0.765,-0.575
2757,-0.790,-0.560
2758,-0.805,-0.550
2759,-0.825,-0.545
2760,-0.815,-0.530
2761,-0.815,-0.510
2762,-0.795,-0.490
2763,-0.820,-0.495
2764,-0.810,-0.495
2765,-0.825,-0.500
2766,-0.855,-0.505
2767,-0.880,-0.540
2768,-0.915,-0.560
2769,-0.960,-0.575
2770,-0.995,-0.575
2771,-1.010,-0.590
2772,-1.015,-0.585
2773,-1.010,-0.590
2774,-1.010,-0.580
2775,-1.005,-0.570
2776,-1.000,-0.580
2777,-0.995,-0.570
2778,-1.005,-0.570
2779,-1.020,-0.590
2780,-1.020,-0.620
2781,-1.020,-0.610
2782,-1.040,-0.615
2783,-1.040,-0.595
2784,-1.030,-0.585
2785,-1.045,-0.575
2786,-1.030,-0.575
2787,-1.015,-0.575
2788,-1.010,-0.570
2789,-1.015,-0.565
2790,-1.015,-0.560
2791,-1.025,-0.565
2792,-1.025,-0.585
2793,-1.030,-0.605
2794,-1.030,-0.590
2795,-1.030,-0.570
2796,-1.045,-0.570
2797,-1.030,-0.565
2798,-1.020,-0.575
2799,-1.005,-0.535
2800,-1.000,-0.550
2801,-1.010,-0.570
2802,-0.995,-0.580
2803,-1.000,-0.565
2804,-0.995,-0.585
2805,-1.000,-0.585
2806,-1.005,-0.580
2807,-0.990,-0.575
2808,-0.995,-0.570
2809,-0.975,-0.545
2810,-0.945,-0.540
2811,-0.925,-0.510
2812,-0.905,-0.480
2813,-0.870,-0.450
2814,-0.770,-0.410
2815,-0.635,-0.270
2816,-0.395,-0.140
2817,-0.110,0.045
2818,0.200,0.205
2819,0.530,0.320
2820,0.870,0.395
2821,1.185,0.425
2822,1.360,0.420
2823,1.360,0.400
2824,1.115,0.330
2825,0.645,0.155
2826,0.020,-0.075
2827,-0.620,-0.405
2828,-1.220,-0.765
2829,-1.610,-1.110
2830,-1.750,-1.300
2831,-1.670,-1.345
2832,-1.495,-1.215
2833,-1.295,-1.025
2834,-1.160,-0.860
2835,-1.065,-0.720
2836,-1.045,-0.660
2837,-1.070,-0.630
2838,-1.075,-0.650
2839,-1.080,-0.660
2840,-1.050,-0.655
2841,-1.035,-0.655
2842,-1.015,-0.640
2843,-0.990,-0.630
2844,-1.000,-0.610
2845,-1.000,-0.590
2846,-0.990,-0.570
2847,-0.995,-0.565
2848,-0.995,-0.560
2849,-0.985,-0.570
2850,-0.990,-0.560
2851,-0.995,-0.570
2852,-1.010,-0.580
2853,-1.015,-0.600
2854,-1.015,-0.590
2855,-1.030,-0.585
2856,-1.010,-0.590
2857,-1.005,-0.575
2858,-1.005,-0.550
2859,-0.985,-0.545
2860,-0.990,-0.550
2861,-0.980,-0.540
2862,-0.980,-0.550
2863,-0.995,-0.545
2864,-1.010,-0.555
2865,-1.020,-0.570
2866,-1.015,-0.560
2867,-1.025,-0.550
2868,-1.025,-0.550
2869,-1.025,-0.545
2870,-1.020,-0.525
2871,-1.005,-0.525
2872,-0.985,-0.515
2873,-0.970,-0.525
2874,-0.970,-0.530
2875,-0.985,-0.520
2876,-0.990,-0.540
2877,-1.000,-0.555
2878,-1.000,-0.555
2879,-1.005,-0.555
2880,-1.005,-0.545
2881,-0.995,-0.545
2882,-0.980,-0.520
2883,-0.985,-0.510
2884,-0.980,-0.505
2885,-0.975,-0.515
2886,-0.980,-0.510
2887,-0.975,-0.530
2888,-0.995,-0.520
2889,-1.005,-0.525
2890,-0.995,-0.520
2891,-1.000,-0.505
2892,-0.975,-0.505
2893,-0.960,-0.500
2894,-0.940,-0.480
2895,-0.935,-0.465
2896,-0.925,-0.470
2897,-0.905,-0.470
2898,-0.930,-0.470
2899,-0.920,-0.470
2900,-0.910,-0.470
2901,-0.920,-0.485
2902,-0.925,-0.475
2903,-0.930,-0.460
2904,-0.900,-0.470
2905,-0.880,-0.450
2906,-0.870,-0.425
2907,-0.845,-0.410
2908,-0.820,-0.415
2909,-0.810,-0.400
2910,-0.800,-0.390
2911,-0.795,-0.410
2912,-0.790,-0.405
2913,-0.780,-0.390
2914,-0.780,-0.385
2915,-0.755,-0.375
2916,-0.745,-0.345
2917,-0.710,-0.315
2918,-0.680,-0.300
2919,-0.660,-0.270
2920,-0.635,-0.255
2921,-0.630,-0.260
2922,-0.630,-0.265
2923,-0.610,-0.255
2924,-0.595,-0.240
2925,-0.580,-0.250
2926,-0.570,-0.230
2927,-0.560,-0.245
2928,-0.545,-0.230
2929,-0.520,-0.210
2930,-0.500,-0.180
2931,-0.485,-0.190
2932,-0.460,-0.185
2933,-0.460,-0.200
2934,-0.435,-0.200
2935,-0.435,-0.210
2936,-0.450,-0.215
2937,-0.470,-0.215
2938,-0.470,-0.235
2939,-0.475,-0.250
2940,-0.490,-0.250
2941,-0.505,-0.220
2942,-0.525,-0.225
2943,-0.520,-0.235
2944,-0.530,-0.265
2945,-0.565,-0.270
2946,-0.580,-0.295
2947,-0.615,-0.330
2948,-0.645,-0.365
2949,-0.685,-0.370
2950,-0.710,-0.405
2951,-0.740,-0.425
2952,-0.765,-0.435
2953,-0.795,-0.435
2954,-0.800,-0.450
2955,-0.835,-0.445
2956,-0.830,-0.470
2957,-0.850,-0.485
2958,-0.860,-0.510
2959,-0.875,-0.520
2960,-0.890,-0.540
2961,-0.905,-0.570
2962,-0.915,-0.545
2963,-0.915,-0.565
2964,-0.915,-0.555
2965,-0.920,-0.550
2966,-0.900,-0.550
2967,-0.910,-0.530
2968,-0.890,-0.525
2969,-0.900,-0.540
2970,-0.915,-0.540
2971,-0.915,-0.545
2972,-0.925,-0.565
2973,-0.925,-0.570
2974,-0.930,-0.575
2975,-0.945,-0.580
2976,-0.945,-0.555
2977,-0.925,-0.550
2978,-0.920,-0.545
2979,-0.925,-0.535
2980,-0.910,-0.540
2981,-0.900,-0.565
2982,-0.900,-0.560
2983,-0.910,-0.575
2984,-0.915,-0.575
2985,-0.925,-0.575
2986,-0.935,-0.585
2987,-0.935,-0.575
2988,-0.920,-0.560
2989,-0.915,-0.570
2990,-0.905,-0.550
2991,-0.895,-0.535
2992,-0.880,-0.530
2993,-0.885,-0.540
2994,-0.880,-0.540
2995,-0.890,-0.530
2996,-0.895,-0.545
2997,-0.890,-0.550
2998,-0.910,-0.560
2999,-0.910,-0.545
3000,-0.920,-0.535
3001,-0.900,-0.535
3002,-0.895,-0.535
3003,-0.885,-0.505
3004,-0.875,-0.510
3005,-0.870,-0.505
3006,-0.860,-0.520
3007,-0.890,-0.530
3008,-0.875,-0.545
3009,-0.895,-0.535
3010,-0.905,-0.555
3011,-0.910,-0.545
3012,-0.910,-0.535
3013,-0.885,-0.530
3014,-0.875,-0.530
3015,-0.890,-0.510
3016,-0.860,-0.505
3017,-0.880,-0.515
3018,-0.860,-0.515
3019,-0.890,-0.525
3020,-0.890,-0.525
3021,-0.895,-0.540
3022,-0.895,-0.535
3023,-0.900,-0.535
3024,-0.910,-0.530
3025,-0.900,-0.520
3026,-0.890,-0.510
3027,-0.885,-0.510
3028,-0.880,-0.520
3029,-0.885,-0.515
3030,-0.880,-0.505
3031,-0.880,-0.520
3032,-0.895,-0.550
3033,-0.905,-0.560
3034,-0.925,-0.560
3035,-0.930,-0.555
3036,-0.935,-0.550
3037,-0.920,-0.540
3038,-0.910,-0.560
3039,-0.905,-0.550
3040,-0.900,-0.535
3041,-0.900,-0.535
3042,-0.895,-0.550
3043,-0.905,-0.570
3044,-0.925,-0.555
3045,-0.925,-0.570
3046,-0.935,-0.555
3047,-0.945,-0.560
3048,-0.935,-0.565
3049,-0.935,-0.570
3050,-0.925,-0.560
3051,-0.915,-0.535
3052,-0.905,-0.535
3053,-0.905,-0.545
3054,-0.900,-0.540
3055,-0.920,-0.555
3056,-0.930,-0.575
3057,-0.945,-0.580
3058,-0.945,-0.585
3059,-0.945,-0.580
3060,-0.950,-0.575
3061,-0.935,-0.560
3062,-0.915,-0.570
3063,-0.905,-0.540
3064,-0.905,-0.565
3065,-0.895,-0.555
3066,-0.925,-0.575
3067,-0.920,-0.590
3068,-0.940,-0.575
3069,-0.935,-0.585
3070,-0.935,-0.590
3071,-0.945,-0.570
3072,-0.960,-0.580
3073,-0.940,-0.570
3074,-0.930,-0.565
3075,-0.930,-0.555
3076,-0.915,-0.540
3077,-0.910,-0.545
3078,-0.905,-0.560
3079,-0.925,-0.555
3080,-0.930,-0.570
3081,-0.925,-0.560
3082,-0.945,-0.580
3083,-0.945,-0.570
3084,-0.950,-0.570
3085,-0.940,-0.555
3086,-0.935,-0.565
3087,-0.930,-0.535
3088,-0.925,-0.530
3089,-0.920,-0.545
3090,-0.945,-0.565
3091,-0.930,-0.590
3092,-0.965,-0.590
3093,-0.955,-0.600
3094,-0.945,-0.600
3095,-0.960,-0.590
3096,-0.960,-0.565
3097,-0.945,-0.565
3098,-0.950,-0.540
3099,-0.940,-0.540
3100,-0.925,-0.535
3101,-0.915,-0.535
3102,-0.935,-0.550
3103,-0.940,-0.560
3104,-0.950,-0.555
3105,-0.960,-0.565
3106,-0.970,-0.570
3107,-0.965,-0.580
3108,-0.965,-0.580
3109,-0.955,-0.560
3110,-0.945,-0.555
3111,-0.935,-0.545
3112,-0.950,-0.540
3113,-0.940,-0.550
3114,-0.940,-0.560
3115,-0.935,-0.565
3116,-0.945,-0.585
3117,-0.950,-0.570
3118,-0.960,-0.600
3119,-0.965,-0.580
3120,-0.950,-0.555
3121,-0.945,-0.570
3122,-0.950,-0.580
3123,-0.940,-0.555
3124,-0.925,-0.560
3125,-0.925,-0.560
3126,-0.925,-0.550
3127,-0.925,-0.550
3128,-0.935,-0.550
3129,-0.950,-0.575
3130,-0.955,-0.565
3131,-0.970,-0.570
3132,-0.970,-0.585
3133,-0.960,-0.570
3134,-0.935,-0.565
3135,-0.935,-0.545
3136,-0.925,-0.550
3137,-0.915,-0.545
3138,-0.915,-0.540
3139,-0.920,-0.550
3140,-0.940,-0.560
3141,-0.940,-0.575
3142,-0.955,-0.575
3143,-0.970,-0.600
3144,-0.960,-0.590
3145,-0.965,-0.585
3146,-0.970,-0.570
3147,-0.950,-0.570
3148,-0.935,-0.545
3149,-0.930,-0.570
3150,-0.915,-0.560
3151,-0.920,-0.570
3152,-0.935,-0.580
3153,-0.940,-0.595
3154,-0.960,-0.580
3155,-0.950,-0.575
3156,-0.955,-0.580
3157,-0.950,-0.565
3158,-0.945,-0.560
3159,-0.940,-0.555
3160,-0.920,-0.540
3161,-0.920,-0.550
3162,-0.925,-0.565
3163,-0.940,-0.575
3164,-0.960,-0.555
3165,-0.960,-0.585
3166,-0.965,-0.585
3167,-0.945,-0.580
3168,-0.945,-0.585
3169,-0.920,-0.565
3170,-0.900,-0.550
3171,-0.880,-0.535
3172,-0.860,-0.545
3173,-0.845,-0.535
3174,-0.830,-0.535
3175,-0.810,-0.565
3176,-0.825,-0.575
3177,-0.840,-0.595
3178,-0.850,-0.610
3179,-0.875,-0.595
3180,-0.860,-0.565
3181,-0.825,-0.555
3182,-0.790,-0.545
3183,-0.730,-0.525
3184,-0.685,-0.505
3185,-0.680,-0.500
3186,-0.670,-0.490
3187,-0.705,-0.495
3188,-0.720,-0.520
3189,-0.735,-0.515
3190,-0.770,-0.505
3191,-0.780,-0.525
3192,-0.795,-0.500
3193,-0.795,-0.485
3194,-0.780,-0.465
3195,-0.775,-0.470
3196,-0.780,-0.465
3197,-0.780,-0.480
3198,-0.800,-0.485
3199,-0.830,-0.515
3200,-0.865,-0.525
3201,-0.915,-0.550
3202,-0.940,-0.575
3203,-0.975,-0.590
3204,-0.990,-0.590
3205,-0.990,-0.585
3206,-0.975,-0.560
3207,-0.965,-0.565
3208,-0.970,-0.555
3209,-0.960,-0.550
3210,-0.970,-0.565
3211,-0.990,-0.555
3212,-0.990,-0.560
3213,-1.010,-0.570
3214,-1.010,-0.585
3215,-1.020,-0.570
3216,-1.025,-0.560
3217,-1.020,-0.550
3218,-1.010,-0.555
3219,-1.005,-0.545
3220,-0.985,-0.530
3221,-0.975,-0.530
3222,-0.990,-0.545
3223,-0.980,-0.535
3224,-0.990,-0.560
3225,-1.005,-0.565
3226,-1.000,-0.590
3227,-1.010,-0.570
3228,-1.015,-0.575
3229,-0.990,-0.580
3230,-0.980,-0.555
3231,-0.980,-0.560
3232,-0.965,-0.550
3233,-0.980,-0.550
3234,-0.970,-0.565
3235,-0.990,-0.555
3236,-0.975,-0.555
3237,-0.985,-0.550
3238,-0.970,-0.550
3239,-0.975,-0.555
3240,-0.960,-0.550
3241,-0.970,-0.535
3242,-0.950,-0.540
3243,-0.940,-0.520
3244,-0.920,-0.520
3245,-0.920,-0.500
3246,-0.895,-0.495
3247,-0.900,-0.495
3248,-0.885,-0.505
3249,-0.880,-0.475
3250,-0.845,-0.430
3251,-0.735,-0.360
3252,-0.560,-0.225
3253,-0.310,-0.050
3254,-0.030,0.115
3255,0.240,0.265
3256,0.535,0.390
3257,0.835,0.435
3258,1.095,0.470
3259,1.285,0.435
3260,1.315,0.405
3261,1.145,0.320
3262,0.825,0.220
3263,0.370,0.045
3264,-0.170,-0.200
3265,-0.715,-0.455
3266,-1.195,-0.725
3267,-1.540,-1.020
3268,-1.685,-1.210
3269,-1.700,-1.320
3270,-1.600,-1.300
3271,-1.450,-1.215
3272,-1.325,-1.070
3273,-1.245,-0.945
3274,-1.220,-0.830
3275,-1.215,-0.755
3276,-1.200,-0.720
3277,-1.150,-0.665
3278,-1.090,-0.630
3279,-1.035,-0.605
3280,-0.990,-0.585
3281,-0.940,-0.575
3282,-0.935,-0.565
3283,-0.960,-0.555
3284,-0.990,-0.575
3285,-1.000,-0.575
3286,-1.010,-0.565
3287,-1.005,-0.555
3288,-1.005,-0.545
3289,-0.990,-0.540
3290,-0.990,-0.530
3291,-0.985,-0.515
3292,-0.975,-0.515
3293,-0.975,-0.495
3294,-0.965,-0.490
3295,-0.980,-0.505
3296,-0.960,-0.520
3297,-0.975,-0.510
3298,-0.975,-0.515
3299,-0.985,-0.510
3300,-0.980,-0.515
3301,-0.960,-0.495
3302,-0.960,-0.480
3303,-0.955,-0.470
3304,-0.955,-0.465
3305,-0.955,-0.485
3306,-0.940,-0.475
3307,-0.940,-0.495
3308,-0.965,-0.505
3309,-0.970,-0.515
3310,-0.970,-0.525
3311,-0.965,-0.505
3312,-0.970,-0.515
3313,-0.950,-0.505
3314,-0.940,-0.480
3315,-0.950,-0.475
3316,-0.950,-0.470
3317,-0.940,-0.470
3318,-0.940,-0.465
3319,-0.950,-0.460
3320,-0.975,-0.485
3321,-0.970,-0.485
3322,-0.970,-0.505
3323,-0.960,-0.495
3324,-0.970,-0.480
3325,-0.960,-0.470
3326,-0.955,-0.460
3327,-0.945,-0.450
3328,-0.925,-0.445
3329,-0.910,-0.450
3330,-0.910,-0.440
3331,-0.905,-0.450
3332,-0.905,-0.450
3333,-0.920,-0.465
3334,-0.920,-0.455
3335,-0.910,-0.470
3336,-0.905,-0.465
3337,-0.895,-0.440
3338,-0.880,-0.440
3339,-0.870,-0.425
3340,-0.850,-0.400
3341,-0.845,-0.405
3342,-0.835,-0.385
3343,-0.830,-0.395
3344,-0.820,-0.390
3345,-0.845,-0.405
3346,-0.840,-0.400
3347,-0.840,-0.385
3348,-0.830,-0.375
3349,-0.810,-0.355
3350,-0.780,-0.345
3351,-0.755,-0.315
3352,-0.730,-0.305
3353,-0.710,-0.305
3354,-0.700,-0.305
3355,-0.690,-0.305
3356,-0.690,-0.300
3357,-0.685,-0.290
3358,-0.660,-0.295
3359,-0.665,-0.275
3360,-0.660,-0.265
3361,-0.620,-0.260
3362,-0.595,-0.230
3363,-0.560,-0.235
3364,-0.545,-0.225
3365,-0.515,-0.205
3366,-0.490,-0.200
3367,-0.500,-0.215
3368,-0.475,-0.205
3369,-0.485,-0.205
3370,-0.475,-0.185
3371,-0.470,-0.200
3372,-0.475,-0.180
3373,-0.450,-0.160
3374,-0.445,-0.155
3375,-0.420,-0.135
3376,-0.400,-0.140
3377,-0.410,-0.140
3378,-0.415,-0.160
3379,-0.420,-0.165
3380,-0.440,-0.190
3381,-0.475,-0.205
3382,-0.485,-0.225
3383,-0.510,-0.240
3384,-0.535,-0.245
3385,-0.560,-0.245
3386,-0.565,-0.255
3387,-0.585,-0.275
3388,-0.605,-0.275
3389,-0.625,-0.315
3390,-0.650,-0.315
3391,-0.685,-0.365
3392,-0.710,-0.380
3393,-0.750,-0.420
3394,-0.775,-0.440
3395,-0.800,-0.450
3396,-0.820,-0.465
3397,-0.820,-0.460
3398,-0.825,-0.455
3399,-0.815,-0.450
3400,-0.815,-0.440
3401,-0.810,-0.460
3402,-0.825,-0.455
3403,-0.840,-0.475
3404,-0.850,-0.475
3405,-0.855,-0.485
3406,-0.875,-0.495
3407,-0.875,-0.485
3408,-0.870,-0.485
3409,-0.870,-0.470
3410,-0.855,-0.470
3411,-0.850,-0.465
3412,-0.855,-0.475
3413,-0.850,-0.490
3414,-0.855,-0.490
3415,-0.855,-0.510
3416,-0.880,-0.510
3417,-0.890,-0.515
3418,-0.900,-0.530
3419,-0.905,-0.510
3420,-0.910,-0.520
3421,-0.890,-0.500
3422,-0.875,-0.500
3423,-0.860,-0.505
3424,-0.860,-0.480
3425,-0.845,-0.495
3426,-0.835,-0.465
3427,-0.855,-0.470
3428,-0.865,-0.480
3429,-0.885,-0.490
3430,-0.890,-0.510
3431,-0.895,-0.500
3432,-0.905,-0.510
3433,-0.875,-0.495
3434,-0.860,-0.510
3435,-0.845,-0.485
3436,-0.830,-0.475
3437,-0.820,-0.480
3438,-0.825,-0.480
3439,-0.820,-0.480
3440,-0.840,-0.490
3441,-0.845,-0.470
3442,-0.840,-0.485
3443,-0.845,-0.480
3444,-0.850,-0.485
3445,-0.855,-0.475
3446,-0.840,-0.465
3447,-0.815,-0.460
3448,-0.805,-0.450
3449,-0.800,-0.440
3450,-0.790,-0.465
3451,-0.810,-0.445
3452,-0.815,-0.480
3453,-0.825,-0.465
3454,-0.835,-0.475
3455,-0.835,-0.475
3456,-0.840,-0.475
3457,-0.840,-0.455
3458,-0.810,-0.460
3459,-0.810,-0.425
3460,-0.805,-0.425
3461,-0.800,-0.430
3462,-0.795,-0.430
3463,-0.800,-0.425
3464,-0.800,-0.445
3465,-0.825,-0.440
3466,-0.810,-0.455
3467,-0.825,-0.445
3468,-0.825,-0.445
3469,-0.825,-0.465
3470,-0.810,-0.455
3471,-0.805,-0.455
3472,-0.790,-0.460
3473,-0.805,-0.440
3474,-0.790,-0.440
3475,-0.805,-0.455
3476,-0.820,-0.465
3477,-0.835,-0.470
3478,-0.855,-0.480
3479,-0.865,-0.480
3480,-0.850,-0.475
3481,-0.860,-0.475
3482,-0.840,-0.460
3483,-0.830,-0.450
3484,-0.815,-0.455
3485,-0.815,-0.450
3486,-0.835,-0.450
3487,-0.825,-0.465
3488,-0.830,-0.455
3489,-0.830,-0.475
3490,-0.835,-0.480
3491,-0.850,-0.470
3492,-0.870,-0.505
3493,-0.850,-0.475
3494,-0.865,-0.480
3495,-0.850,-0.460
3496,-0.845,-0.455
3497,-0.830,-0.460
3498,-0.845,-0.455
3499,-0.845,-0.485
3500,-0.850,-0.495
3501,-0.845,-0.505
3502,-0.865,-0.505
3503,-0.870,-0.495
3504,-0.870,-0.500
3505,-0.865,-0.495
3506,-0.845,-0.480
3507,-0.845,-0.470
3508,-0.840,-0.475
3509,-0.850,-0.475
3510,-0.835,-0.460
3511,-0.850,-0.475
3512,-0.835,-0.475
3513,-0.850,-0.500
3514,-0.865,-0.500
3515,-0.880,-0.505
3516,-0.875,-0.500
3517,-0.870,-0.475
3518,-0.850,-0.470
3519,-0.855,-0.445
3520,-0.845,-0.445
3521,-0.850,-0.460
3522,-0.845,-0.475
3523,-0.825,-0.490
3524,-0.850,-0.485
3525,-0.850,-0.520
3526,-0.860,-0.520
3527,-0.855,-0.515
3528,-0.850,-0.500
3529,-0.845,-0.480
3530,-0.845,-0.470
3531,-0.840,-0.480
3532,-0.845,-0.465
3533,-0.845,-0.460
3534,-0.845,-0.465
3535,-0.855,-0.470
3536,-0.845,-0.495
3537,-0.840,-0.505
3538,-0.865,-0.510
3539,-0.880,-0.500
3540,-0.865,-0.490
3541,-0.850,-0.485
3542,-0.855,-0.465
3543,-0.835,-0.465
3544,-0.820,-0.455
3545,-0.835,-0.460
3546,-0.820,-0.465
3547,-0.840,-0.475
3548,-0.835,-0.500
3549,-0.835,-0.495
3550,-0.860,-0.505
3551,-0.865,-0.495
3552,-0.870,-0.505
3553,-0.860,-0.505
3554,-0.855,-0.480
3555,-0.835,-0.470
3556,-0.835,-0.480
3557,-0.820,-0.475
3558,-0.815,-0.465
3559,-0.815,-0.495
3560,-0.820,-0.485
3561,-0.835,-0.480
3562,-0.835,-0.490
3563,-0.845,-0.490
3564,-0.840,-0.485
3565,-0.845,-0.475
3566,-0.840,-0.480
3567,-0.845,-0.465
3568,-0.810,-0.450
3569,-0.805,-0.460
3570,-0.795,-0.470
3571,-0.805,-0.475
3572,-0.820,-0.465
3573,-0.815,-0.485
3574,-0.820,-0.490
3575,-0.820,-0.500
3576,-0.810,-0.480
3577,-0.790,-0.485
3578,-0.780,-0.475
3579,-0.765,-0.460
3580,-0.740,-0.470
3581,-0.730,-0.480
3582,-0.715,-0.465
3583,-0.710,-0.480
3584,-0.715,-0.490
3585,-0.705,-0.495
3586,-0.705,-0.490
3587,-0.710,-0.485
3588,-0.685,-0.480
3589,-0.640,-0.465
3590,-0.625,-0.430
3591,-0.595,-0.415
3592,-0.560,-0.395
3593,-0.565,-0.390
3594,-0.580,-0.395
3595,-0.600,-0.395
3596,-0.615,-0.420
3597,-0.625,-0.440
3598,-0.645,-0.450
3599,-0.665,-0.450
