0,-1.000,-0.685
1,-1.000,-0.685
2,-1.000,-0.685
3,-1.000,-0.685
4,-1.000,-0.685
5,-1.000,-0.685
6,-1.000,-0.685
7,-0.985,-0.680
8,-0.970,-0.680
9,-0.970,-0.695
10,-0.970,-0.695
11,-0.970,-0.695
12,-0.980,-0.705
13,-0.975,-0.705
14,-0.975,-0.695
15,-0.985,-0.690
16,-0.980,-0.690
17,-0.970,-0.670
18,-0.975,-0.675
19,-0.955,-0.665
20,-0.945,-0.675
21,-0.950,-0.675
22,-0.965,-0.680
23,-0.950,-0.680
24,-0.955,-0.685
25,-0.960,-0.690
26,-0.960,-0.690
27,-0.965,-0.680
28,-0.970,-0.670
29,-0.965,-0.665
30,-0.950,-0.660
31,-0.950,-0.650
32,-0.925,-0.655
33,-0.930,-0.660
34,-0.940,-0.660
35,-0.935,-0.665
36,-0.940,-0.665
37,-0.950,-0.670
38,-0.965,-0.675
39,-0.960,-0.675
40,-0.950,-0.665
41,-0.955,-0.660
42,-0.940,-0.655
43,-0.945,-0.650
44,-0.925,-0.660
45,-0.925,-0.660
46,-0.930,-0.665
47,-0.930,-0.680
48,-0.935,-0.675
49,-0.945,-0.675
50,-0.950,-0.675
51,-0.950,-0.675
52,-0.945,-0.660
53,-0.940,-0.660
54,-0.935,-0.655
55,-0.920,-0.655
56,-0.920,-0.640
57,-0.920,-0.650
58,-0.915,-0.645
59,-0.915,-0.655
60,-0.920,-0.660
61,-0.920,-0.690
62,-0.930,-0.675
63,-0.930,-0.675
64,-0.950,-0.665
65,-0.955,-0.660
66,-0.930,-0.650
67,-0.915,-0.645
68,-0.905,-0.640
69,-0.900,-0.650
70,-0.910,-0.655
71,-0.920,-0.655
72,-0.925,-0.660
73,-0.925,-0.680
74,-0.925,-0.690
75,-0.920,-0.680
76,-0.930,-0.685
77,-0.935,-0.670
78,-0.920,-0.655
79,-0.905,-0.635
80,-0.905,-0.640
81,-0.895,-0.640
82,-0.900,-0.655
83,-0.905,-0.675
84,-0.915,-0.690
85,-0.920,-0.700
86,-0.910,-0.680
87,-0.920,-0.675
88,-0.925,-0.675
89,-0.910,-0.655
90,-0.915,-0.650
91,-0.900,-0.645
92,-0.895,-0.635
93,-0.900,-0.650
94,-0.900,-0.660
95,-0.905,-0.670
96,-0.910,-0.675
97,-0.910,-0.680
98,-0.920,-0.675
99,-0.920,-0.655
100,-0.920,-0.660
101,-0.920,-0.655
102,-0.910,-0.645
103,-0.920,-0.655
104,-0.900,-0.640
105,-0.895,-0.660
106,-0.900,-0.665
107,-0.905,-0.670
108,-0.915,-0.680
109,-0.910,-0.670
110,-0.920,-0.680
111,-0.925,-0.675
112,-0.935,-0.670
113,-0.910,-0.655
114,-0.905,-0.660
115,-0.905,-0.655
116,-0.895,-0.655
117,-0.895,-0.660
118,-0.895,-0.675
119,-0.900,-0.670
120,-0.910,-0.675
121,-0.905,-0.685
122,-0.915,-0.675
123,-0.920,-0.680
124,-0.915,-0.685
125,-0.910,-0.670
126,-0.920,-0.665
127,-0.900,-0.660
128,-0.890,-0.660
129,-0.895,-0.665
130,-0.895,-0.655
131,-0.895,-0.665
132,-0.905,-0.665
133,-0.910,-0.680
134,-0.915,-0.685
135,-0.910,-0.680
136,-0.915,-0.680
137,-0.920,-0.660
138,-0.900,-0.655
139,-0.900,-0.650
140,-0.895,-0.650
141,-0.885,-0.665
142,-0.895,-0.660
143,-0.900,-0.675
144,-0.900,-0.680
145,-0.905,-0.680
146,-0.915,-0.690
147,-0.920,-0.680
148,-0.920,-0.670
149,-0.910,-0.670
150,-0.905,-0.660
151,-0.900,-0.655
152,-0.895,-0.655
153,-0.885,-0.645
154,-0.890,-0.660
155,-0.885,-0.670
156,-0.885,-0.685
157,-0.890,-0.680
158,-0.900,-0.680
159,-0.890,-0.675
160,-0.895,-0.690
161,-0.885,-0.675
162,-0.870,-0.670
163,-0.880,-0.670
164,-0.865,-0.650
165,-0.870,-0.670
166,-0.870,-0.660
167,-0.870,-0.680
168,-0.865,-0.685
169,-0.860,-0.685
170,-0.850,-0.685
171,-0.850,-0.675
172,-0.835,-0.680
173,-0.820,-0.665
174,-0.820,-0.660
175,-0.810,-0.645
176,-0.810,-0.640
177,-0.815,-0.650
178,-0.830,-0.640
179,-0.835,-0.665
180,-0.850,-0.665
181,-0.865,-0.665
182,-0.865,-0.655
183,-0.870,-0.655
184,-0.870,-0.650
185,-0.865,-0.640
186,-0.870,-0.635
187,-0.860,-0.640
188,-0.845,-0.620
189,-0.830,-0.605
190,-0.820,-0.605
191,-0.815,-0.615
192,-0.815,-0.605
193,-0.820,-0.615
194,-0.825,-0.620
195,-0.840,-0.630
196,-0.845,-0.640
197,-0.855,-0.640
198,-0.875,-0.630
199,-0.880,-0.625
200,-0.880,-0.635
201,-0.895,-0.645
202,-0.910,-0.670
203,-0.920,-0.675
204,-0.930,-0.685
205,-0.935,-0.690
206,-0.925,-0.690
207,-0.925,-0.695
208,-0.930,-0.680
209,-0.920,-0.665
210,-0.910,-0.670
211,-0.910,-0.665
212,-0.905,-0.680
213,-0.910,-0.690
214,-0.935,-0.735
215,-0.935,-0.750
216,-0.935,-0.745
217,-0.915,-0.690
218,-0.850,-0.615
219,-0.750,-0.480
220,-0.655,-0.360
221,-0.570,-0.270
222,-0.500,-0.245
223,-0.465,-0.260
224,-0.445,-0.345
225,-0.495,-0.515
226,-0.610,-0.780
227,-0.750,-1.065
228,-0.920,-1.330
229,-1.015,-1.495
230,-1.015,-1.535
231,-0.910,-1.455
232,-0.720,-1.300
233,-0.475,-1.105
234,-0.210,-0.920
235,0.035,-0.765
236,0.260,-0.635
237,0.490,-0.545
238,0.690,-0.490
239,0.880,-0.475
240,1.025,-0.465
241,1.130,-0.460
242,1.190,-0.475
243,1.195,-0.515
244,1.165,-0.580
245,1.085,-0.635
246,0.970,-0.670
247,0.815,-0.690
248,0.635,-0.685
249,0.425,-0.670
250,0.215,-0.660
251,0.000,-0.640
252,-0.215,-0.610
253,-0.430,-0.625
254,-0.645,-0.645
255,-0.835,-0.690
256,-0.980,-0.730
257,-1.070,-0.750
258,-1.125,-0.760
259,-1.140,-0.750
260,-1.130,-0.710
261,-1.120,-0.690
262,-1.095,-0.665
263,-1.080,-0.650
264,-1.085,-0.640
265,-1.070,-0.625
266,-1.070,-0.615
267,-1.060,-0.585
268,-1.045,-0.575
269,-1.035,-0.555
270,-1.020,-0.540
271,-1.015,-0.540
272,-1.000,-0.535
273,-1.000,-0.545
274,-1.005,-0.555
275,-1.020,-0.555
276,-1.025,-0.565
277,-1.040,-0.565
278,-1.040,-0.545
279,-1.050,-0.540
280,-1.045,-0.530
281,-1.040,-0.515
282,-1.030,-0.510
283,-1.025,-0.520
284,-1.015,-0.510
285,-1.010,-0.525
286,-1.025,-0.520
287,-1.025,-0.520
288,-1.035,-0.520
289,-1.045,-0.525
290,-1.040,-0.525
291,-1.045,-0.535
292,-1.040,-0.520
293,-1.040,-0.515
294,-1.025,-0.510
295,-1.020,-0.505
296,-1.015,-0.495
297,-1.020,-0.510
298,-1.020,-0.500
299,-1.035,-0.510
300,-1.045,-0.520
301,-1.050,-0.540
302,-1.060,-0.545
303,-1.060,-0.535
304,-1.060,-0.540
305,-1.055,-0.520
306,-1.060,-0.515
307,-1.045,-0.515
308,-1.050,-0.505
309,-1.055,-0.515
310,-1.055,-0.525
311,-1.070,-0.535
312,-1.075,-0.545
313,-1.075,-0.560
314,-1.080,-0.550
315,-1.090,-0.555
316,-1.090,-0.545
317,-1.085,-0.540
318,-1.090,-0.540
319,-1.080,-0.530
320,-1.085,-0.535
321,-1.080,-0.545
322,-1.085,-0.565
323,-1.090,-0.575
324,-1.110,-0.580
325,-1.125,-0.595
326,-1.125,-0.595
327,-1.135,-0.610
328,-1.150,-0.615
329,-1.150,-0.610
330,-1.140,-0.605
331,-1.140,-0.605
332,-1.135,-0.605
333,-1.155,-0.625
334,-1.170,-0.650
335,-1.175,-0.660
336,-1.195,-0.695
337,-1.190,-0.700
338,-1.185,-0.725
339,-1.200,-0.720
340,-1.200,-0.705
341,-1.195,-0.715
342,-1.200,-0.710
343,-1.210,-0.705
344,-1.195,-0.725
345,-1.205,-0.730
346,-1.195,-0.745
347,-1.205,-0.765
348,-1.210,-0.780
349,-1.210,-0.810
350,-1.220,-0.810
351,-1.210,-0.815
352,-1.210,-0.815
353,-1.205,-0.805
354,-1.180,-0.820
355,-1.180,-0.820
356,-1.165,-0.825
357,-1.160,-0.830
358,-1.160,-0.840
359,-1.155,-0.845
360,-1.145,-0.855
361,-1.140,-0.855
362,-1.120,-0.855
363,-1.115,-0.850
364,-1.105,-0.855
365,-1.090,-0.835
366,-1.070,-0.835
367,-1.050,-0.825
368,-1.020,-0.825
369,-1.005,-0.845
370,-0.995,-0.835
371,-0.970,-0.830
372,-0.965,-0.825
373,-0.950,-0.840
374,-0.935,-0.825
375,-0.935,-0.830
376,-0.920,-0.815
377,-0.900,-0.805
378,-0.885,-0.805
379,-0.850,-0.780
380,-0.845,-0.775
381,-0.840,-0.775
382,-0.845,-0.790
383,-0.825,-0.795
384,-0.835,-0.785
385,-0.835,-0.785
386,-0.830,-0.775
387,-0.830,-0.775
388,-0.820,-0.785
389,-0.820,-0.745
390,-0.820,-0.750
391,-0.810,-0.735
392,-0.810,-0.735
393,-0.815,-0.740
394,-0.825,-0.750
395,-0.845,-0.745
396,-0.860,-0.765
397,-0.875,-0.760
398,-0.885,-0.760
399,-0.900,-0.755
400,-0.905,-0.750
401,-0.905,-0.735
402,-0.905,-0.735
403,-0.915,-0.715
404,-0.900,-0.715
405,-0.920,-0.730
406,-0.925,-0.740
407,-0.940,-0.755
408,-0.940,-0.755
409,-0.965,-0.760
410,-0.960,-0.760
411,-0.970,-0.755
412,-0.970,-0.760
413,-0.970,-0.745
414,-0.960,-0.745
415,-0.960,-0.720
416,-0.960,-0.720
417,-0.970,-0.725
418,-0.970,-0.730
419,-0.960,-0.735
420,-0.975,-0.745
421,-0.980,-0.760
422,-0.975,-0.765
423,-0.990,-0.755
424,-0.980,-0.750
425,-0.970,-0.710
426,-0.965,-0.690
427,-0.955,-0.685
428,-0.950,-0.690
429,-0.950,-0.695
430,-0.955,-0.700
431,-0.955,-0.700
432,-0.945,-0.715
433,-0.940,-0.720
434,-0.955,-0.725
435,-0.950,-0.700
436,-0.935,-0.700
437,-0.935,-0.690
438,-0.930,-0.680
439,-0.925,-0.690
440,-0.915,-0.690
441,-0.915,-0.685
442,-0.920,-0.695
443,-0.910,-0.690
444,-0.925,-0.695
445,-0.925,-0.695
446,-0.930,-0.685
447,-0.930,-0.680
448,-0.930,-0.685
449,-0.920,-0.675
450,-0.925,-0.670
451,-0.905,-0.665
452,-0.910,-0.660
453,-0.905,-0.665
454,-0.900,-0.660
455,-0.895,-0.665
456,-0.910,-0.675
457,-0.910,-0.675
458,-0.905,-0.680
459,-0.910,-0.675
460,-0.910,-0.670
461,-0.905,-0.665
462,-0.895,-0.660
463,-0.890,-0.645
464,-0.875,-0.640
465,-0.885,-0.655
466,-0.885,-0.650
467,-0.895,-0.650
468,-0.890,-0.665
469,-0.905,-0.675
470,-0.900,-0.670
471,-0.905,-0.670
472,-0.895,-0.670
473,-0.895,-0.665
474,-0.890,-0.650
475,-0.890,-0.640
476,-0.875,-0.635
477,-0.870,-0.640
478,-0.880,-0.645
479,-0.880,-0.650
480,-0.880,-0.665
481,-0.895,-0.665
482,-0.900,-0.675
483,-0.900,-0.670
484,-0.900,-0.665
485,-0.895,-0.660
486,-0.885,-0.650
487,-0.875,-0.650
488,-0.860,-0.655
489,-0.860,-0.645
490,-0.860,-0.645
491,-0.865,-0.665
492,-0.870,-0.660
493,-0.865,-0.650
494,-0.880,-0.650
495,-0.870,-0.655
496,-0.875,-0.650
497,-0.865,-0.640
498,-0.860,-0.645
499,-0.860,-0.630
500,-0.855,-0.640
501,-0.855,-0.635
502,-0.855,-0.645
503,-0.865,-0.670
504,-0.865,-0.670
505,-0.865,-0.675
506,-0.880,-0.675
507,-0.870,-0.675
508,-0.865,-0.655
509,-0.870,-0.655
510,-0.860,-0.650
511,-0.865,-0.640
512,-0.845,-0.645
513,-0.845,-0.665
514,-0.845,-0.655
515,-0.845,-0.665
516,-0.860,-0.670
517,-0.860,-0.670
518,-0.865,-0.665
519,-0.875,-0.675
520,-0.875,-0.660
521,-0.865,-0.655
522,-0.865,-0.645
523,-0.860,-0.640
524,-0.860,-0.635
525,-0.845,-0.650
526,-0.840,-0.645
527,-0.850,-0.650
528,-0.860,-0.665
529,-0.860,-0.675
530,-0.875,-0.670
531,-0.860,-0.675
532,-0.860,-0.665
533,-0.860,-0.650
534,-0.860,-0.655
535,-0.845,-0.655
536,-0.840,-0.655
537,-0.840,-0.645
538,-0.850,-0.670
539,-0.845,-0.660
540,-0.865,-0.665
541,-0.860,-0.670
542,-0.870,-0.675
543,-0.875,-0.680
544,-0.880,-0.685
545,-0.885,-0.670
546,-0.860,-0.665
547,-0.855,-0.660
548,-0.845,-0.660
549,-0.835,-0.655
550,-0.845,-0.660
551,-0.855,-0.660
552,-0.860,-0.660
553,-0.865,-0.670
554,-0.865,-0.680
555,-0.870,-0.670
556,-0.860,-0.675
557,-0.865,-0.665
558,-0.845,-0.665
559,-0.855,-0.655
560,-0.835,-0.645
561,-0.850,-0.655
562,-0.860,-0.660
563,-0.840,-0.655
564,-0.855,-0.665
565,-0.855,-0.675
566,-0.860,-0.675
567,-0.855,-0.675
568,-0.860,-0.680
569,-0.855,-0.680
570,-0.845,-0.670
571,-0.840,-0.665
572,-0.840,-0.650
573,-0.835,-0.650
574,-0.845,-0.650
575,-0.845,-0.675
576,-0.840,-0.680
577,-0.860,-0.690
578,-0.855,-0.700
579,-0.855,-0.700
580,-0.860,-0.680
581,-0.860,-0.690
582,-0.855,-0.680
583,-0.860,-0.660
584,-0.850,-0.660
585,-0.845,-0.665
586,-0.840,-0.665
587,-0.860,-0.685
588,-0.860,-0.685
589,-0.870,-0.690
590,-0.880,-0.680
591,-0.855,-0.695
592,-0.865,-0.685
593,-0.850,-0.685
594,-0.850,-0.685
595,-0.845,-0.675
596,-0.840,-0.665
597,-0.835,-0.665
598,-0.835,-0.675
599,-0.835,-0.680
600,-0.855,-0.690
601,-0.850,-0.690
602,-0.855,-0.695
603,-0.855,-0.680
604,-0.845,-0.680
605,-0.850,-0.665
606,-0.835,-0.655
607,-0.840,-0.655
608,-0.830,-0.665
609,-0.835,-0.665
610,-0.825,-0.670
611,-0.820,-0.685
612,-0.825,-0.685
613,-0.835,-0.695
614,-0.835,-0.700
615,-0.830,-0.695
616,-0.825,-0.690
617,-0.820,-0.675
618,-0.830,-0.670
619,-0.825,-0.665
620,-0.820,-0.650
621,-0.805,-0.660
622,-0.795,-0.645
623,-0.795,-0.660
624,-0.790,-0.670
625,-0.790,-0.675
626,-0.795,-0.670
627,-0.790,-0.670
628,-0.780,-0.670
629,-0.780,-0.660
630,-0.785,-0.655
631,-0.790,-0.655
632,-0.790,-0.650
633,-0.800,-0.655
634,-0.805,-0.650
635,-0.820,-0.645
636,-0.820,-0.665
637,-0.815,-0.670
638,-0.820,-0.670
639,-0.815,-0.665
640,-0.795,-0.655
641,-0.775,-0.625
642,-0.770,-0.615
643,-0.755,-0.625
644,-0.750,-0.615
645,-0.755,-0.620
646,-0.775,-0.635
647,-0.785,-0.640
648,-0.785,-0.665
649,-0.815,-0.680
650,-0.845,-0.700
651,-0.855,-0.700
652,-0.870,-0.705
653,-0.865,-0.710
654,-0.860,-0.700
655,-0.865,-0.680
656,-0.850,-0.680
657,-0.845,-0.685
658,-0.850,-0.690
659,-0.845,-0.710
660,-0.860,-0.715
661,-0.860,-0.730
662,-0.865,-0.730
663,-0.865,-0.730
664,-0.865,-0.745
665,-0.875,-0.770
666,-0.875,-0.770
667,-0.875,-0.755
668,-0.840,-0.720
669,-0.800,-0.655
670,-0.725,-0.540
671,-0.640,-0.430
672,-0.565,-0.350
673,-0.495,-0.320
674,-0.460,-0.360
675,-0.475,-0.465
676,-0.510,-0.650
677,-0.610,-0.900
678,-0.740,-1.190
679,-0.850,-1.385
680,-0.905,-1.495
681,-0.845,-1.465
682,-0.690,-1.300
683,-0.455,-1.100
684,-0.205,-0.875
685,0.075,-0.695
686,0.345,-0.530
687,0.595,-0.425
688,0.840,-0.345
689,1.055,-0.310
690,1.230,-0.300
691,1.345,-0.330
692,1.400,-0.390
693,1.390,-0.485
694,1.295,-0.595
695,1.180,-0.660
696,1.015,-0.700
697,0.805,-0.710
698,0.565,-0.715
699,0.335,-0.690
700,0.110,-0.660
701,-0.125,-0.620
702,-0.345,-0.610
703,-0.580,-0.630
704,-0.775,-0.670
705,-0.930,-0.735
706,-1.045,-0.780
707,-1.110,-0.815
708,-1.145,-0.810
709,-1.135,-0.780
710,-1.120,-0.740
711,-1.100,-0.700
712,-1.075,-0.660
713,-1.050,-0.625
714,-1.020,-0.590
715,-1.020,-0.580
716,-0.990,-0.560
717,-0.965,-0.550
718,-0.970,-0.555
719,-0.980,-0.560
720,-0.980,-0.570
721,-0.995,-0.580
722,-1.010,-0.585
723,-1.015,-0.570
724,-1.005,-0.555
725,-0.995,-0.540
726,-0.980,-0.535
727,-0.980,-0.530
728,-0.975,-0.530
729,-0.980,-0.530
730,-0.980,-0.545
731,-0.990,-0.545
732,-0.995,-0.550
733,-1.005,-0.545
734,-1.005,-0.545
735,-1.015,-0.540
736,-1.010,-0.555
737,-1.000,-0.525
738,-0.995,-0.530
739,-0.985,-0.515
740,-0.980,-0.510
741,-0.980,-0.515
742,-0.980,-0.515
743,-0.995,-0.530
744,-1.005,-0.535
745,-1.010,-0.545
746,-1.035,-0.550
747,-1.030,-0.550
748,-1.030,-0.550
749,-1.025,-0.545
750,-1.015,-0.525
751,-1.005,-0.525
752,-1.000,-0.520
753,-1.000,-0.510
754,-1.005,-0.535
755,-1.025,-0.545
756,-1.045,-0.550
757,-1.055,-0.560
758,-1.055,-0.570
759,-1.065,-0.570
760,-1.075,-0.565
761,-1.080,-0.565
762,-1.065,-0.560
763,-1.075,-0.560
764,-1.060,-0.565
765,-1.080,-0.575
766,-1.075,-0.595
767,-1.080,-0.590
768,-1.090,-0.600
769,-1.105,-0.615
770,-1.110,-0.620
771,-1.120,-0.625
772,-1.130,-0.635
773,-1.130,-0.625
774,-1.120,-0.645
775,-1.120,-0.640
776,-1.110,-0.655
777,-1.120,-0.660
778,-1.120,-0.680
779,-1.135,-0.680
780,-1.135,-0.700
781,-1.160,-0.700
782,-1.160,-0.715
783,-1.165,-0.730
784,-1.170,-0.730
785,-1.165,-0.725
786,-1.160,-0.750
787,-1.150,-0.750
788,-1.135,-0.755
789,-1.145,-0.760
790,-1.145,-0.780
791,-1.140,-0.775
792,-1.145,-0.785
793,-1.145,-0.795
794,-1.140,-0.805
795,-1.140,-0.795
796,-1.110,-0.795
797,-1.100,-0.805
798,-1.070,-0.800
799,-1.060,-0.790
800,-1.035,-0.780
801,-1.015,-0.790
802,-1.010,-0.795
803,-1.005,-0.800
804,-0.990,-0.800
805,-0.985,-0.810
806,-0.970,-0.815
807,-0.955,-0.810
808,-0.940,-0.800
809,-0.925,-0.780
810,-0.890,-0.770
811,-0.875,-0.750
812,-0.860,-0.745
813,-0.845,-0.750
814,-0.825,-0.760
815,-0.820,-0.760
816,-0.815,-0.775
817,-0.800,-0.775
818,-0.810,-0.770
819,-0.805,-0.765
820,-0.800,-0.755
821,-0.795,-0.740
822,-0.770,-0.740
823,-0.775,-0.740
824,-0.765,-0.740
825,-0.770,-0.755
826,-0.770,-0.745
827,-0.790,-0.760
828,-0.795,-0.760
829,-0.815,-0.760
830,-0.830,-0.775
831,-0.830,-0.770
832,-0.850,-0.760
833,-0.870,-0.765
834,-0.875,-0.760
835,-0.870,-0.760
836,-0.870,-0.765
837,-0.885,-0.780
838,-0.900,-0.775
839,-0.910,-0.800
840,-0.930,-0.815
841,-0.930,-0.815
842,-0.970,-0.805
843,-0.985,-0.820
844,-0.960,-0.800
845,-0.975,-0.800
846,-0.970,-0.800
847,-0.965,-0.785
848,-0.970,-0.790
849,-0.965,-0.805
850,-0.975,-0.800
851,-0.975,-0.800
852,-0.995,-0.805
853,-1.000,-0.810
854,-1.000,-0.805
855,-1.005,-0.810
856,-1.005,-0.785
857,-1.000,-0.785
858,-0.995,-0.780
859,-0.975,-0.780
860,-0.980,-0.770
861,-0.975,-0.760
862,-0.980,-0.765
863,-0.970,-0.770
864,-0.985,-0.775
865,-0.985,-0.775
866,-0.980,-0.775
867,-0.980,-0.775
868,-0.970,-0.760
869,-0.955,-0.755
870,-0.945,-0.745
871,-0.930,-0.740
872,-0.920,-0.735
873,-0.915,-0.730
874,-0.925,-0.735
875,-0.925,-0.740
876,-0.930,-0.730
877,-0.920,-0.755
878,-0.935,-0.745
879,-0.940,-0.755
880,-0.930,-0.745
881,-0.925,-0.745
882,-0.910,-0.735
883,-0.905,-0.735
884,-0.900,-0.720
885,-0.900,-0.715
886,-0.905,-0.730
887,-0.905,-0.740
888,-0.910,-0.735
889,-0.905,-0.740
890,-0.910,-0.740
891,-0.915,-0.750
892,-0.920,-0.740
893,-0.900,-0.730
894,-0.885,-0.720
895,-0.880,-0.695
896,-0.870,-0.690
897,-0.875,-0.690
898,-0.870,-0.690
899,-0.880,-0.700
900,-0.890,-0.725
901,-0.900,-0.730
902,-0.910,-0.740
903,-0.900,-0.735
904,-0.895,-0.735
905,-0.880,-0.725
906,-0.880,-0.720
907,-0.875,-0.710
908,-0.870,-0.700
909,-0.865,-0.705
910,-0.870,-0.710
911,-0.870,-0.725
912,-0.870,-0.715
913,-0.880,-0.735
914,-0.885,-0.735
915,-0.880,-0.735
916,-0.880,-0.730
917,-0.880,-0.730
918,-0.870,-0.725
919,-0.860,-0.710
920,-0.855,-0.710
921,-0.855,-0.695
922,-0.855,-0.715
923,-0.850,-0.715
924,-0.865,-0.725
925,-0.870,-0.740
926,-0.875,-0.735
927,-0.870,-0.735
928,-0.865,-0.725
929,-0.865,-0.700
930,-0.860,-0.700
931,-0.855,-0.685
932,-0.840,-0.690
933,-0.840,-0.695
934,-0.840,-0.700
935,-0.845,-0.710
936,-0.850,-0.725
937,-0.865,-0.705
938,-0.860,-0.720
939,-0.870,-0.720
940,-0.870,-0.715
941,-0.855,-0.705
942,-0.855,-0.690
943,-0.860,-0.690
944,-0.845,-0.695
945,-0.840,-0.685
946,-0.845,-0.705
947,-0.835,-0.695
948,-0.850,-0.700
949,-0.855,-0.710
950,-0.870,-0.715
951,-0.875,-0.720
952,-0.875,-0.710
953,-0.860,-0.715
954,-0.865,-0.700
955,-0.850,-0.705
956,-0.840,-0.685
957,-0.840,-0.690
958,-0.840,-0.695
959,-0.850,-0.695
960,-0.840,-0.710
961,-0.860,-0.700
962,-0.865,-0.715
963,-0.865,-0.705
964,-0.865,-0.705
965,-0.850,-0.695
966,-0.845,-0.685
967,-0.840,-0.675
968,-0.825,-0.680
969,-0.820,-0.675
970,-0.820,-0.695
971,-0.825,-0.700
972,-0.840,-0.700
973,-0.850,-0.705
974,-0.845,-0.710
975,-0.855,-0.715
976,-0.865,-0.705
977,-0.865,-0.700
978,-0.840,-0.690
979,-0.840,-0.695
980,-0.825,-0.675
981,-0.820,-0.680
982,-0.825,-0.690
983,-0.830,-0.680
984,-0.830,-0.695
985,-0.835,-0.695
986,-0.840,-0.700
987,-0.845,-0.700
988,-0.845,-0.705
989,-0.850,-0.705
990,-0.835,-0.690
991,-0.840,-0.695
992,-0.835,-0.665
993,-0.835,-0.680
994,-0.820,-0.685
995,-0.825,-0.680
996,-0.835,-0.695
997,-0.835,-0.695
998,-0.855,-0.700
999,-0.845,-0.695
1000,-0.845,-0.675
1001,-0.840,-0.665
1002,-0.825,-0.680
1003,-0.820,-0.665
1004,-0.825,-0.660
1005,-0.815,-0.670
1006,-0.825,-0.680
1007,-0.825,-0.690
1008,-0.835,-0.720
1009,-0.840,-0.715
1010,-0.835,-0.710
1011,-0.835,-0.710
1012,-0.835,-0.695
1013,-0.840,-0.685
1014,-0.835,-0.675
1015,-0.830,-0.670
1016,-0.815,-0.665
1017,-0.810,-0.685
1018,-0.805,-0.690
1019,-0.815,-0.705
1020,-0.830,-0.720
1021,-0.840,-0.720
1022,-0.830,-0.715
1023,-0.830,-0.710
1024,-0.830,-0.690
1025,-0.820,-0.685
1026,-0.820,-0.685
1027,-0.805,-0.670
1028,-0.800,-0.685
1029,-0.810,-0.700
1030,-0.815,-0.700
1031,-0.810,-0.700
1032,-0.830,-0.710
1033,-0.825,-0.705
1034,-0.840,-0.710
1035,-0.840,-0.700
1036,-0.835,-0.690
1037,-0.825,-0.680
1038,-0.810,-0.665
1039,-0.795,-0.660
1040,-0.790,-0.660
1041,-0.785,-0.665
1042,-0.800,-0.680
1043,-0.805,-0.705
1044,-0.815,-0.695
1045,-0.820,-0.700
1046,-0.815,-0.700
1047,-0.815,-0.705
1048,-0.830,-0.700
1049,-0.810,-0.680
1050,-0.790,-0.665
1051,-0.755,-0.655
1052,-0.740,-0.670
1053,-0.730,-0.675
1054,-0.730,-0.675
1055,-0.735,-0.685
1056,-0.735,-0.695
1057,-0.750,-0.700
1058,-0.750,-0.680
1059,-0.750,-0.670
1060,-0.770,-0.670
1061,-0.780,-0.660
1062,-0.780,-0.650
1063,-0.770,-0.650
1064,-0.765,-0.650
1065,-0.770,-0.650
1066,-0.770,-0.665
1067,-0.765,-0.660
1068,-0.775,-0.660
1069,-0.775,-0.645
1070,-0.765,-0.635
1071,-0.750,-0.630
1072,-0.750,-0.625
1073,-0.735,-0.625
1074,-0.735,-0.630
1075,-0.735,-0.635
1076,-0.750,-0.645
1077,-0.765,-0.655
1078,-0.775,-0.670
1079,-0.800,-0.690
1080,-0.825,-0.695
1081,-0.835,-0.710
1082,-0.845,-0.705
1083,-0.840,-0.705
1084,-0.835,-0.695
1085,-0.830,-0.675
1086,-0.825,-0.670
1087,-0.810,-0.665
1088,-0.805,-0.675
1089,-0.820,-0.685
1090,-0.825,-0.705
1091,-0.830,-0.720
1092,-0.845,-0.765
1093,-0.860,-0.780
1094,-0.870,-0.760
1095,-0.835,-0.690
1096,-0.755,-0.565
1097,-0.660,-0.430
1098,-0.550,-0.310
1099,-0.460,-0.255
1100,-0.390,-0.265
1101,-0.375,-0.360
1102,-0.410,-0.550
1103,-0.515,-0.850
1104,-0.685,-1.170
1105,-0.840,-1.425
1106,-0.925,-1.560
1107,-0.915,-1.540
1108,-0.755,-1.395
1109,-0.515,-1.170
1110,-0.220,-0.945
1111,0.060,-0.755
1112,0.335,-0.625
1113,0.570,-0.570
1114,0.780,-0.555
1115,0.955,-0.545
1116,1.090,-0.550
1117,1.160,-0.575
1118,1.185,-0.615
1119,1.160,-0.655
1120,1.105,-0.680
1121,1.020,-0.685
1122,0.910,-0.670
1123,0.740,-0.665
1124,0.555,-0.645
1125,0.340,-0.630
1126,0.145,-0.620
1127,-0.065,-0.605
1128,-0.295,-0.615
1129,-0.515,-0.640
1130,-0.695,-0.675
1131,-0.875,-0.700
1132,-0.965,-0.725
1133,-1.025,-0.730
1134,-1.045,-0.715
1135,-1.035,-0.680
1136,-1.025,-0.660
1137,-1.000,-0.625
1138,-0.975,-0.615
1139,-0.970,-0.600
1140,-0.965,-0.580
1141,-0.950,-0.575
1142,-0.935,-0.550
1143,-0.925,-0.535
1144,-0.930,-0.525
1145,-0.920,-0.505
1146,-0.915,-0.500
1147,-0.910,-0.500
1148,-0.920,-0.500
1149,-0.915,-0.505
1150,-0.920,-0.510
1151,-0.925,-0.515
1152,-0.935,-0.510
1153,-0.940,-0.520
1154,-0.940,-0.510
1155,-0.945,-0.500
1156,-0.940,-0.500
1157,-0.935,-0.480
1158,-0.935,-0.470
1159,-0.925,-0.475
1160,-0.915,-0.485
1161,-0.925,-0.490
1162,-0.940,-0.490
1163,-0.930,-0.505
1164,-0.930,-0.520
1165,-0.940,-0.545
1166,-0.940,-0.530
1167,-0.950,-0.530
1168,-0.945,-0.505
1169,-0.945,-0.490
1170,-0.955,-0.470
1171,-0.940,-0.475
1172,-0.945,-0.480
1173,-0.945,-0.490
1174,-0.940,-0.500
1175,-0.960,-0.525
1176,-0.955,-0.520
1177,-0.970,-0.525
1178,-0.975,-0.530
1179,-0.985,-0.520
1180,-0.980,-0.500
1181,-0.970,-0.515
1182,-0.975,-0.510
1183,-0.970,-0.500
1184,-0.965,-0.510
1185,-0.970,-0.515
1186,-0.995,-0.520
1187,-1.000,-0.525
1188,-1.005,-0.545
1189,-1.010,-0.545
1190,-1.015,-0.550
1191,-1.020,-0.540
1192,-1.020,-0.535
1193,-1.020,-0.530
1194,-1.015,-0.545
1195,-1.025,-0.540
1196,-1.025,-0.545
1197,-1.035,-0.555
1198,-1.040,-0.570
1199,-1.020,-0.585
1200,-1.050,-0.605
1201,-1.055,-0.605
1202,-1.060,-0.615
1203,-1.075,-0.630
1204,-1.075,-0.615
1205,-1.070,-0.620
1206,-1.070,-0.625
1207,-1.060,-0.620
1208,-1.065,-0.645
1209,-1.065,-0.655
1210,-1.075,-0.675
1211,-1.090,-0.685
1212,-1.105,-0.710
1213,-1.125,-0.730
1214,-1.120,-0.720
1215,-1.125,-0.725
1216,-1.125,-0.735
1217,-1.120,-0.720
1218,-1.115,-0.740
1219,-1.110,-0.735
1220,-1.110,-0.740
1221,-1.110,-0.765
1222,-1.125,-0.795
1223,-1.130,-0.805
1224,-1.125,-0.825
1225,-1.115,-0.830
1226,-1.115,-0.835
1227,-1.110,-0.835
1228,-1.090,-0.835
1229,-1.080,-0.830
1230,-1.055,-0.840
1231,-1.050,-0.830
1232,-1.035,-0.835
1233,-1.030,-0.845
1234,-1.010,-0.850
1235,-1.000,-0.845
1236,-0.985,-0.855
1237,-0.980,-0.850
1238,-0.965,-0.845
1239,-0.950,-0.850
1240,-0.935,-0.835
1241,-0.910,-0.830
1242,-0.885,-0.815
1243,-0.865,-0.800
1244,-0.845,-0.805
1245,-0.830,-0.815
1246,-0.815,-0.820
1247,-0.800,-0.815
1248,-0.800,-0.815
1249,-0.785,-0.815
1250,-0.785,-0.820
1251,-0.785,-0.800
1252,-0.765,-0.790
1253,-0.750,-0.780
1254,-0.735,-0.760
1255,-0.725,-0.740
1256,-0.720,-0.745
1257,-0.720,-0.750
1258,-0.720,-0.770
1259,-0.740,-0.755
1260,-0.755,-0.765
1261,-0.750,-0.765
1262,-0.750,-0.755
1263,-0.745,-0.735
1264,-0.750,-0.725
1265,-0.765,-0.735
1266,-0.755,-0.720
1267,-0.760,-0.720
1268,-0.765,-0.715
1269,-0.775,-0.725
1270,-0.785,-0.735
1271,-0.810,-0.740
1272,-0.820,-0.745
1273,-0.830,-0.735
1274,-0.835,-0.740
1275,-0.840,-0.740
1276,-0.855,-0.720
1277,-0.845,-0.735
1278,-0.850,-0.730
1279,-0.850,-0.715
1280,-0.845,-0.720
1281,-0.855,-0.715
1282,-0.850,-0.735
1283,-0.860,-0.740
1284,-0.875,-0.740
1285,-0.870,-0.745
1286,-0.875,-0.745
1287,-0.875,-0.725
1288,-0.880,-0.710
1289,-0.875,-0.710
1290,-0.860,-0.705
1291,-0.855,-0.715
1292,-0.850,-0.705
1293,-0.840,-0.710
1294,-0.845,-0.715
1295,-0.850,-0.715
1296,-0.850,-0.725
1297,-0.855,-0.715
1298,-0.850,-0.720
1299,-0.855,-0.695
1300,-0.845,-0.695
1301,-0.835,-0.695
1302,-0.830,-0.690
1303,-0.830,-0.675
1304,-0.810,-0.685
1305,-0.805,-0.690
1306,-0.815,-0.695
1307,-0.835,-0.700
1308,-0.845,-0.685
1309,-0.835,-0.690
1310,-0.840,-0.700
1311,-0.830,-0.700
1312,-0.810,-0.690
1313,-0.810,-0.680
1314,-0.805,-0.680
1315,-0.780,-0.665
1316,-0.790,-0.670
1317,-0.780,-0.670
1318,-0.795,-0.690
1319,-0.795,-0.685
1320,-0.785,-0.700
1321,-0.795,-0.700
1322,-0.810,-0.715
1323,-0.800,-0.705
1324,-0.790,-0.690
1325,-0.795,-0.680
1326,-0.795,-0.665
1327,-0.775,-0.660
1328,-0.765,-0.675
1329,-0.765,-0.680
1330,-0.760,-0.685
1331,-0.765,-0.700
1332,-0.760,-0.705
1333,-0.770,-0.705
1334,-0.780,-0.700
1335,-0.775,-0.710
1336,-0.760,-0.685
1337,-0.765,-0.685
1338,-0.755,-0.670
1339,-0.755,-0.670
1340,-0.740,-0.685
1341,-0.745,-0.690
1342,-0.745,-0.700
1343,-0.750,-0.695
1344,-0.760,-0.705
1345,-0.765,-0.710
1346,-0.770,-0.715
1347,-0.755,-0.715
1348,-0.755,-0.700
1349,-0.750,-0.700
1350,-0.745,-0.685
1351,-0.740,-0.685
1352,-0.745,-0.695
1353,-0.750,-0.700
1354,-0.745,-0.705
1355,-0.750,-0.715
1356,-0.740,-0.700
1357,-0.735,-0.715
1358,-0.745,-0.710
1359,-0.750,-0.700
1360,-0.755,-0.695
1361,-0.745,-0.695
1362,-0.730,-0.680
1363,-0.730,-0.685
1364,-0.720,-0.695
1365,-0.725,-0.690
1366,-0.715,-0.700
1367,-0.725,-0.705
1368,-0.730,-0.705
1369,-0.735,-0.705
1370,-0.730,-0.710
1371,-0.730,-0.695
1372,-0.735,-0.680
1373,-0.715,-0.675
1374,-0.705,-0.670
1375,-0.705,-0.675
1376,-0.695,-0.675
1377,-0.695,-0.690
1378,-0.690,-0.700
1379,-0.700,-0.700
1380,-0.705,-0.710
1381,-0.705,-0.720
1382,-0.710,-0.710
1383,-0.720,-0.710
1384,-0.720,-0.715
1385,-0.720,-0.710
1386,-0.690,-0.710
1387,-0.680,-0.700
1388,-0.685,-0.700
1389,-0.685,-0.700
1390,-0.685,-0.700
1391,-0.690,-0.710
1392,-0.690,-0.710
1393,-0.695,-0.720
1394,-0.705,-0.725
1395,-0.700,-0.730
1396,-0.695,-0.720
1397,-0.680,-0.705
1398,-0.670,-0.705
1399,-0.660,-0.705
1400,-0.670,-0.695
1401,-0.655,-0.715
1402,-0.655,-0.710
1403,-0.680,-0.705
1404,-0.675,-0.725
1405,-0.685,-0.735
1406,-0.680,-0.740
1407,-0.690,-0.740
1408,-0.680,-0.730
1409,-0.680,-0.715
1410,-0.670,-0.715
1411,-0.655,-0.700
1412,-0.660,-0.715
1413,-0.670,-0.705
1414,-0.665,-0.720
1415,-0.675,-0.730
1416,-0.680,-0.730
1417,-0.680,-0.725
1418,-0.670,-0.740
1419,-0.665,-0.730
1420,-0.665,-0.730
1421,-0.650,-0.720
1422,-0.645,-0.725
1423,-0.630,-0.715
1424,-0.630,-0.730
1425,-0.635,-0.725
1426,-0.645,-0.730
1427,-0.655,-0.745
1428,-0.655,-0.755
1429,-0.660,-0.755
1430,-0.665,-0.755
1431,-0.650,-0.760
1432,-0.650,-0.740
1433,-0.640,-0.730
1434,-0.650,-0.720
1435,-0.635,-0.720
1436,-0.620,-0.725
1437,-0.630,-0.725
1438,-0.635,-0.740
1439,-0.650,-0.745
1440,-0.655,-0.740
1441,-0.655,-0.750
1442,-0.655,-0.755
1443,-0.650,-0.750
1444,-0.640,-0.740
1445,-0.630,-0.750
1446,-0.625,-0.740
1447,-0.625,-0.730
1448,-0.630,-0.730
1449,-0.630,-0.745
1450,-0.615,-0.750
1451,-0.630,-0.750
1452,-0.630,-0.760
1453,-0.630,-0.755
1454,-0.640,-0.765
1455,-0.645,-0.760
1456,-0.620,-0.750
1457,-0.620,-0.750
1458,-0.595,-0.745
1459,-0.605,-0.735
1460,-0.590,-0.740
1461,-0.600,-0.740
1462,-0.595,-0.750
1463,-0.610,-0.760
1464,-0.625,-0.765
1465,-0.625,-0.770
1466,-0.610,-0.765
1467,-0.605,-0.755
1468,-0.605,-0.765
1469,-0.595,-0.755
1470,-0.585,-0.750
1471,-0.575,-0.745
1472,-0.555,-0.750
1473,-0.560,-0.765
1474,-0.555,-0.765
1475,-0.560,-0.765
1476,-0.565,-0.765
1477,-0.580,-0.770
1478,-0.580,-0.765
1479,-0.575,-0.770
1480,-0.565,-0.755
1481,-0.560,-0.740
1482,-0.530,-0.745
1483,-0.505,-0.730
1484,-0.490,-0.730
1485,-0.495,-0.750
1486,-0.485,-0.755
1487,-0.500,-0.755
1488,-0.510,-0.760
1489,-0.520,-0.775
1490,-0.535,-0.765
1491,-0.555,-0.755
1492,-0.545,-0.750
1493,-0.535,-0.765
1494,-0.535,-0.745
1495,-0.525,-0.735
1496,-0.525,-0.720
1497,-0.520,-0.735
1498,-0.535,-0.740
1499,-0.535,-0.730
1500,-0.525,-0.735
1501,-0.510,-0.730
1502,-0.485,-0.725
1503,-0.490,-0.715
1504,-0.480,-0.725
1505,-0.480,-0.715
1506,-0.480,-0.720
1507,-0.485,-0.715
1508,-0.505,-0.735
1509,-0.530,-0.755
1510,-0.540,-0.770
1511,-0.565,-0.790
1512,-0.575,-0.800
1513,-0.595,-0.805
1514,-0.595,-0.810
1515,-0.595,-0.800
1516,-0.585,-0.775
1517,-0.580,-0.780
1518,-0.570,-0.770
1519,-0.560,-0.765
1520,-0.555,-0.770
1521,-0.555,-0.790
1522,-0.565,-0.815
1523,-0.570,-0.835
1524,-0.585,-0.860
1525,-0.610,-0.885
1526,-0.600,-0.875
1527,-0.570,-0.815
1528,-0.515,-0.700
1529,-0.440,-0.595
1530,-0.350,-0.480
1531,-0.260,-0.410
1532,-0.185,-0.410
1533,-0.165,-0.475
1534,-0.165,-0.595
1535,-0.230,-0.830
1536,-0.325,-1.110
1537,-0.460,-1.355
1538,-0.560,-1.525
1539,-0.570,-1.535
1540,-0.470,-1.415
1541,-0.275,-1.195
1542,-0.020,-0.970
1543,0.260,-0.760
1544,0.520,-0.595
1545,0.760,-0.495
1546,0.980,-0.435
1547,1.170,-0.400
1548,1.345,-0.390
1549,1.475,-0.400
1550,1.555,-0.420
1551,1.600,-0.470
1552,1.615,-0.550
1553,1.550,-0.655
1554,1.480,-0.710
1555,1.375,-0.750
1556,1.210,-0.805
1557,0.995,-0.810
1558,0.795,-0.795
1559,0.595,-0.790
1560,0.400,-0.775
1561,0.210,-0.755
1562,0.000,-0.750
1563,-0.190,-0.755
1564,-0.380,-0.790
1565,-0.550,-0.845
1566,-0.675,-0.880
1567,-0.760,-0.890
1568,-0.800,-0.900
1569,-0.810,-0.870
1570,-0.815,-0.840
1571,-0.800,-0.810
1572,-0.780,-0.800
1573,-0.765,-0.780
1574,-0.755,-0.770
1575,-0.740,-0.750
1576,-0.720,-0.720
1577,-0.705,-0.680
1578,-0.675,-0.670
1579,-0.670,-0.655
1580,-0.655,-0.650
1581,-0.660,-0.665
1582,-0.665,-0.660
1583,-0.670,-0.665
1584,-0.680,-0.665
1585,-0.695,-0.660
1586,-0.705,-0.660
1587,-0.705,-0.660
1588,-0.705,-0.655
1589,-0.695,-0.645
1590,-0.670,-0.650
1591,-0.665,-0.625
1592,-0.660,-0.640
1593,-0.665,-0.640
1594,-0.680,-0.650
1595,-0.690,-0.655
1596,-0.685,-0.665
1597,-0.695,-0.670
1598,-0.700,-0.660
1599,-0.700,-0.670
1600,-0.700,-0.655
1601,-0.695,-0.665
1602,-0.690,-0.655
1603,-0.690,-0.650
1604,-0.675,-0.650
1605,-0.680,-0.650
1606,-0.690,-0.650
1607,-0.690,-0.660
1608,-0.700,-0.665
1609,-0.705,-0.675
1610,-0.715,-0.670
1611,-0.710,-0.665
1612,-0.715,-0.660
1613,-0.700,-0.655
1614,-0.695,-0.640
1615,-0.700,-0.635
1616,-0.690,-0.630
1617,-0.690,-0.650
1618,-0.705,-0.655
1619,-0.710,-0.665
1620,-0.720,-0.670
1621,-0.730,-0.695
1622,-0.745,-0.680
1623,-0.745,-0.680
1624,-0.745,-0.685
1625,-0.730,-0.675
1626,-0.740,-0.665
1627,-0.745,-0.660
1628,-0.720,-0.660
1629,-0.725,-0.675
1630,-0.750,-0.690
1631,-0.750,-0.695
1632,-0.755,-0.705
1633,-0.765,-0.710
1634,-0.770,-0.705
1635,-0.770,-0.710
1636,-0.780,-0.710
1637,-0.775,-0.705
1638,-0.785,-0.705
1639,-0.775,-0.705
1640,-0.775,-0.730
1641,-0.780,-0.730
1642,-0.795,-0.740
1643,-0.805,-0.770
1644,-0.820,-0.770
1645,-0.825,-0.790
1646,-0.820,-0.805
1647,-0.825,-0.795
1648,-0.835,-0.800
1649,-0.825,-0.795
1650,-0.815,-0.795
1651,-0.820,-0.795
1652,-0.815,-0.795
1653,-0.825,-0.810
1654,-0.840,-0.825
1655,-0.830,-0.840
1656,-0.835,-0.860
1657,-0.845,-0.870
1658,-0.840,-0.885
1659,-0.840,-0.850
1660,-0.830,-0.870
1661,-0.830,-0.865
1662,-0.815,-0.865
1663,-0.800,-0.845
1664,-0.790,-0.860
1665,-0.790,-0.880
1666,-0.780,-0.875
1667,-0.785,-0.890
1668,-0.780,-0.910
1669,-0.775,-0.900
1670,-0.765,-0.890
1671,-0.745,-0.880
1672,-0.725,-0.870
1673,-0.705,-0.880
1674,-0.675,-0.860
1675,-0.660,-0.865
1676,-0.650,-0.855
1677,-0.640,-0.865
1678,-0.620,-0.870
1679,-0.595,-0.870
1680,-0.585,-0.880
1681,-0.580,-0.885
1682,-0.580,-0.875
1683,-0.555,-0.855
1684,-0.540,-0.845
1685,-0.535,-0.845
1686,-0.520,-0.840
1687,-0.490,-0.835
1688,-0.470,-0.820
1689,-0.465,-0.830
1690,-0.455,-0.840
1691,-0.455,-0.835
1692,-0.460,-0.850
1693,-0.475,-0.850
1694,-0.455,-0.845
1695,-0.465,-0.835
1696,-0.455,-0.830
1697,-0.450,-0.840
1698,-0.445,-0.830
1699,-0.450,-0.835
1700,-0.450,-0.840
1701,-0.450,-0.840
1702,-0.455,-0.850
1703,-0.480,-0.865
1704,-0.505,-0.870
1705,-0.510,-0.870
1706,-0.520,-0.865
1707,-0.535,-0.860
1708,-0.545,-0.845
1709,-0.550,-0.855
1710,-0.555,-0.860
1711,-0.555,-0.850
1712,-0.565,-0.860
1713,-0.580,-0.860
1714,-0.585,-0.855
1715,-0.615,-0.875
1716,-0.620,-0.885
1717,-0.645,-0.885
1718,-0.655,-0.895
1719,-0.655,-0.875
1720,-0.665,-0.875
1721,-0.660,-0.860
1722,-0.655,-0.845
1723,-0.645,-0.845
1724,-0.650,-0.850
1725,-0.655,-0.855
1726,-0.665,-0.860
1727,-0.675,-0.860
1728,-0.680,-0.880
1729,-0.690,-0.880
1730,-0.695,-0.875
1731,-0.690,-0.875
1732,-0.680,-0.860
1733,-0.675,-0.850
1734,-0.665,-0.840
1735,-0.650,-0.840
1736,-0.635,-0.830
1737,-0.650,-0.830
1738,-0.640,-0.835
1739,-0.650,-0.830
1740,-0.650,-0.825
1741,-0.655,-0.835
1742,-0.650,-0.835
1743,-0.645,-0.820
1744,-0.650,-0.815
1745,-0.635,-0.800
1746,-0.615,-0.785
1747,-0.620,-0.775
1748,-0.605,-0.770
1749,-0.620,-0.775
1750,-0.615,-0.790
1751,-0.625,-0.810
1752,-0.610,-0.805
1753,-0.620,-0.805
1754,-0.620,-0.790
1755,-0.625,-0.775
1756,-0.630,-0.770
1757,-0.615,-0.750
1758,-0.595,-0.745
1759,-0.595,-0.750
1760,-0.575,-0.740
1761,-0.590,-0.755
1762,-0.580,-0.755
1763,-0.580,-0.770
1764,-0.590,-0.770
1765,-0.595,-0.775
1766,-0.590,-0.770
1767,-0.590,-0.755
1768,-0.580,-0.750
1769,-0.570,-0.730
1770,-0.565,-0.735
1771,-0.560,-0.720
1772,-0.550,-0.730
1773,-0.565,-0.730
1774,-0.575,-0.750
1775,-0.570,-0.750
1776,-0.580,-0.755
1777,-0.575,-0.760
1778,-0.595,-0.755
1779,-0.595,-0.745
1780,-0.580,-0.735
1781,-0.575,-0.745
1782,-0.570,-0.740
1783,-0.565,-0.725
1784,-0.560,-0.735
1785,-0.550,-0.730
1786,-0.555,-0.720
1787,-0.570,-0.740
1788,-0.565,-0.735
1789,-0.580,-0.740
1790,-0.575,-0.735
1791,-0.585,-0.735
1792,-0.580,-0.730
1793,-0.580,-0.730
1794,-0.565,-0.710
1795,-0.555,-0.710
1796,-0.550,-0.705
1797,-0.555,-0.710
1798,-0.555,-0.705
1799,-0.565,-0.715
1800,-0.560,-0.725
1801,-0.570,-0.725
1802,-0.570,-0.730
1803,-0.575,-0.735
1804,-0.570,-0.725
1805,-0.575,-0.710
1806,-0.555,-0.700
1807,-0.560,-0.685
1808,-0.555,-0.685
1809,-0.550,-0.690
1810,-0.560,-0.690
1811,-0.570,-0.705
1812,-0.565,-0.705
1813,-0.575,-0.710
1814,-0.580,-0.700
1815,-0.565,-0.700
1816,-0.560,-0.690
1817,-0.555,-0.685
1818,-0.555,-0.680
1819,-0.545,-0.665
1820,-0.550,-0.665
1821,-0.550,-0.685
1822,-0.550,-0.690
1823,-0.575,-0.700
1824,-0.565,-0.710
1825,-0.565,-0.715
1826,-0.570,-0.710
1827,-0.565,-0.705
1828,-0.565,-0.690
1829,-0.555,-0.690
1830,-0.540,-0.680
1831,-0.555,-0.675
1832,-0.550,-0.680
1833,-0.560,-0.680
1834,-0.560,-0.680
1835,-0.555,-0.690
1836,-0.575,-0.705
1837,-0.570,-0.690
1838,-0.575,-0.695
1839,-0.580,-0.685
1840,-0.570,-0.665
1841,-0.565,-0.650
1842,-0.550,-0.660
1843,-0.545,-0.650
1844,-0.535,-0.660
1845,-0.545,-0.660
1846,-0.540,-0.680
1847,-0.555,-0.690
1848,-0.555,-0.695
1849,-0.565,-0.690
1850,-0.560,-0.680
1851,-0.560,-0.680
1852,-0.560,-0.675
1853,-0.555,-0.655
1854,-0.565,-0.670
1855,-0.555,-0.645
1856,-0.550,-0.660
1857,-0.555,-0.655
1858,-0.555,-0.675
1859,-0.550,-0.680
1860,-0.555,-0.680
1861,-0.565,-0.675
1862,-0.560,-0.670
1863,-0.550,-0.675
1864,-0.555,-0.665
1865,-0.560,-0.680
1866,-0.570,-0.665
1867,-0.565,-0.665
1868,-0.560,-0.645
1869,-0.550,-0.655
1870,-0.555,-0.640
1871,-0.555,-0.670
1872,-0.550,-0.675
1873,-0.570,-0.665
1874,-0.565,-0.670
1875,-0.570,-0.675
1876,-0.565,-0.675
1877,-0.560,-0.665
1878,-0.555,-0.660
1879,-0.550,-0.645
1880,-0.545,-0.635
1881,-0.550,-0.635
1882,-0.555,-0.645
1883,-0.555,-0.645
1884,-0.565,-0.655
1885,-0.565,-0.655
1886,-0.570,-0.655
1887,-0.585,-0.660
1888,-0.575,-0.645
1889,-0.570,-0.645
1890,-0.550,-0.650
1891,-0.550,-0.625
1892,-0.535,-0.625
1893,-0.550,-0.635
1894,-0.560,-0.645
1895,-0.555,-0.645
1896,-0.565,-0.660
1897,-0.565,-0.660
1898,-0.565,-0.650
1899,-0.570,-0.645
1900,-0.560,-0.650
1901,-0.565,-0.630
1902,-0.550,-0.620
1903,-0.540,-0.620
1904,-0.535,-0.615
1905,-0.540,-0.625
1906,-0.550,-0.635
1907,-0.550,-0.635
1908,-0.570,-0.635
1909,-0.565,-0.640
1910,-0.565,-0.640
1911,-0.560,-0.620
1912,-0.550,-0.620
1913,-0.530,-0.620
1914,-0.540,-0.620
1915,-0.530,-0.610
1916,-0.525,-0.620
1917,-0.535,-0.640
1918,-0.535,-0.620
1919,-0.550,-0.645
1920,-0.540,-0.640
1921,-0.540,-0.625
1922,-0.530,-0.620
1923,-0.520,-0.620
1924,-0.510,-0.615
1925,-0.495,-0.605
1926,-0.485,-0.590
1927,-0.480,-0.570
1928,-0.485,-0.580
1929,-0.490,-0.580
1930,-0.500,-0.590
1931,-0.515,-0.595
1932,-0.530,-0.605
1933,-0.530,-0.605
1934,-0.550,-0.600
1935,-0.545,-0.585
1936,-0.555,-0.580
1937,-0.545,-0.565
1938,-0.530,-0.560
1939,-0.505,-0.535
1940,-0.490,-0.535
1941,-0.480,-0.545
1942,-0.495,-0.540
1943,-0.490,-0.550
1944,-0.505,-0.570
1945,-0.525,-0.570
1946,-0.535,-0.570
1947,-0.545,-0.570
1948,-0.555,-0.580
1949,-0.565,-0.575
1950,-0.560,-0.580
1951,-0.565,-0.590
1952,-0.570,-0.590
1953,-0.585,-0.600
1954,-0.580,-0.600
1955,-0.590,-0.615
1956,-0.600,-0.610
1957,-0.600,-0.625
1958,-0.600,-0.625
1959,-0.595,-0.620
1960,-0.600,-0.615
1961,-0.580,-0.620
1962,-0.595,-0.625
1963,-0.585,-0.635
1964,-0.600,-0.640
1965,-0.590,-0.610
1966,-0.550,-0.510
1967,-0.475,-0.385
1968,-0.380,-0.275
1969,-0.300,-0.190
1970,-0.230,-0.180
1971,-0.185,-0.250
1972,-0.185,-0.405
1973,-0.260,-0.695
1974,-0.420,-1.005
1975,-0.590,-1.280
1976,-0.690,-1.435
1977,-0.685,-1.435
1978,-0.570,-1.300
1979,-0.360,-1.095
1980,-0.110,-0.890
1981,0.150,-0.720
1982,0.390,-0.585
1983,0.615,-0.515
1984,0.820,-0.480
1985,1.000,-0.470
1986,1.140,-0.460
1987,1.240,-0.460
1988,1.285,-0.495
1989,1.275,-0.550
1990,1.225,-0.585
1991,1.155,-0.595
1992,1.035,-0.590
1993,0.880,-0.575
1994,0.695,-0.565
1995,0.490,-0.535
1996,0.300,-0.510
1997,0.110,-0.495
1998,-0.090,-0.495
1999,-0.295,-0.520
2000,-0.475,-0.575
2001,-0.635,-0.605
2002,-0.745,-0.630
2003,-0.805,-0.640
2004,-0.840,-0.620
2005,-0.840,-0.590
2006,-0.825,-0.545
2007,-0.795,-0.515
2008,-0.765,-0.490
2009,-0.745,-0.485
2010,-0.715,-0.450
2011,-0.685,-0.440
2012,-0.685,-0.430
2013,-0.675,-0.430
2014,-0.685,-0.425
2015,-0.690,-0.415
2016,-0.715,-0.430
2017,-0.720,-0.425
2018,-0.720,-0.435
2019,-0.730,-0.435
2020,-0.730,-0.410
2021,-0.730,-0.415
2022,-0.710,-0.405
2023,-0.700,-0.385
2024,-0.690,-0.375
2025,-0.700,-0.380
2026,-0.695,-0.385
2027,-0.705,-0.390
2028,-0.705,-0.405
2029,-0.710,-0.405
2030,-0.710,-0.405
2031,-0.710,-0.390
2032,-0.720,-0.390
2033,-0.725,-0.380
2034,-0.715,-0.365
2035,-0.715,-0.345
2036,-0.705,-0.360
2037,-0.715,-0.370
2038,-0.715,-0.370
2039,-0.720,-0.390
2040,-0.735,-0.385
2041,-0.740,-0.395
2042,-0.750,-0.395
2043,-0.740,-0.395
2044,-0.760,-0.385
2045,-0.765,-0.380
2046,-0.740,-0.365
2047,-0.740,-0.355
2048,-0.735,-0.350
2049,-0.740,-0.355
2050,-0.755,-0.380
2051,-0.765,-0.395
2052,-0.770,-0.400
2053,-0.785,-0.410
2054,-0.785,-0.405
2055,-0.790,-0.400
2056,-0.785,-0.385
2057,-0.795,-0.385
2058,-0.785,-0.385
2059,-0.795,-0.380
2060,-0.800,-0.395
2061,-0.790,-0.395
2062,-0.810,-0.410
2063,-0.810,-0.425
2064,-0.820,-0.440
2065,-0.825,-0.445
2066,-0.840,-0.455
2067,-0.860,-0.440
2068,-0.840,-0.445
2069,-0.845,-0.450
2070,-0.845,-0.450
2071,-0.845,-0.455
2072,-0.845,-0.460
2073,-0.855,-0.470
2074,-0.865,-0.485
2075,-0.875,-0.500
2076,-0.885,-0.515
2077,-0.900,-0.525
2078,-0.925,-0.520
2079,-0.930,-0.535
2080,-0.925,-0.550
2081,-0.915,-0.545
2082,-0.915,-0.550
2083,-0.905,-0.550
2084,-0.910,-0.570
2085,-0.915,-0.575
2086,-0.925,-0.585
2087,-0.940,-0.600
2088,-0.955,-0.615
2089,-0.945,-0.615
2090,-0.960,-0.620
2091,-0.950,-0.630
2092,-0.945,-0.640
2093,-0.935,-0.630
2094,-0.935,-0.635
2095,-0.920,-0.635
2096,-0.895,-0.640
2097,-0.900,-0.655
2098,-0.890,-0.655
2099,-0.890,-0.675
2100,-0.885,-0.675
2101,-0.885,-0.680
2102,-0.865,-0.690
2103,-0.840,-0.695
2104,-0.825,-0.685
2105,-0.800,-0.675
2106,-0.790,-0.670
2107,-0.770,-0.665
2108,-0.740,-0.655
2109,-0.730,-0.665
2110,-0.720,-0.665
2111,-0.705,-0.665
2112,-0.700,-0.670
2113,-0.690,-0.665
2114,-0.670,-0.650
2115,-0.660,-0.650
2116,-0.650,-0.635
2117,-0.625,-0.630
2118,-0.605,-0.615
2119,-0.590,-0.605
2120,-0.580,-0.610
2121,-0.565,-0.605
2122,-0.555,-0.610
2123,-0.560,-0.615
2124,-0.565,-0.610
2125,-0.555,-0.620
2126,-0.565,-0.605
2127,-0.565,-0.605
2128,-0.570,-0.585
2129,-0.565,-0.585
2130,-0.590,-0.565
2131,-0.575,-0.570
2132,-0.570,-0.560
2133,-0.570,-0.555
2134,-0.585,-0.575
2135,-0.605,-0.590
2136,-0.620,-0.595
2137,-0.645,-0.585
2138,-0.650,-0.585
2139,-0.655,-0.585
2140,-0.660,-0.565
2141,-0.665,-0.550
2142,-0.660,-0.555
2143,-0.675,-0.550
2144,-0.680,-0.545
2145,-0.700,-0.550
2146,-0.695,-0.555
2147,-0.725,-0.560
2148,-0.720,-0.575
2149,-0.720,-0.560
2150,-0.740,-0.570
2151,-0.745,-0.560
2152,-0.745,-0.545
2153,-0.730,-0.545
2154,-0.730,-0.545
2155,-0.720,-0.530
2156,-0.715,-0.545
2157,-0.730,-0.530
2158,-0.740,-0.540
2159,-0.740,-0.555
2160,-0.760,-0.565
2161,-0.765,-0.555
2162,-0.760,-0.565
2163,-0.755,-0.550
2164,-0.765,-0.535
2165,-0.760,-0.520
2166,-0.740,-0.520
2167,-0.735,-0.510
2168,-0.725,-0.525
2169,-0.725,-0.520
2170,-0.725,-0.525
2171,-0.725,-0.525
2172,-0.730,-0.530
2173,-0.740,-0.540
2174,-0.735,-0.530
2175,-0.735,-0.520
2176,-0.745,-0.510
2177,-0.725,-0.510
2178,-0.720,-0.510
2179,-0.725,-0.495
2180,-0.705,-0.475
2181,-0.700,-0.480
2182,-0.710,-0.490
2183,-0.715,-0.485
2184,-0.715,-0.495
2185,-0.715,-0.490
2186,-0.735,-0.495
2187,-0.730,-0.505
2188,-0.725,-0.480
2189,-0.715,-0.475
2190,-0.700,-0.470
2191,-0.690,-0.465
2192,-0.695,-0.455
2193,-0.705,-0.460
2194,-0.705,-0.460
2195,-0.710,-0.480
2196,-0.705,-0.480
2197,-0.705,-0.490
2198,-0.715,-0.485
2199,-0.705,-0.485
2200,-0.700,-0.495
2201,-0.705,-0.480
2202,-0.690,-0.455
2203,-0.680,-0.450
2204,-0.670,-0.455
2205,-0.680,-0.450
2206,-0.680,-0.450
2207,-0.690,-0.465
2208,-0.685,-0.460
2209,-0.700,-0.475
2210,-0.700,-0.485
2211,-0.700,-0.460
2212,-0.710,-0.465
2213,-0.700,-0.455
2214,-0.685,-0.450
2215,-0.690,-0.445
2216,-0.675,-0.425
2217,-0.675,-0.420
2218,-0.685,-0.440
2219,-0.685,-0.440
2220,-0.685,-0.445
2221,-0.705,-0.450
2222,-0.710,-0.450
2223,-0.710,-0.460
2224,-0.710,-0.445
2225,-0.705,-0.440
2226,-0.700,-0.430
2227,-0.705,-0.425
2228,-0.690,-0.425
2229,-0.675,-0.420
2230,-0.680,-0.430
2231,-0.685,-0.440
2232,-0.695,-0.450
2233,-0.705,-0.460
2234,-0.710,-0.455
2235,-0.705,-0.450
2236,-0.705,-0.435
2237,-0.695,-0.430
2238,-0.700,-0.415
2239,-0.680,-0.410
2240,-0.675,-0.415
2241,-0.690,-0.410
2242,-0.700,-0.420
2243,-0.685,-0.420
2244,-0.700,-0.425
2245,-0.690,-0.430
2246,-0.695,-0.445
2247,-0.710,-0.440
2248,-0.710,-0.425
2249,-0.690,-0.425
2250,-0.695,-0.425
2251,-0.685,-0.415
2252,-0.670,-0.400
2253,-0.675,-0.410
2254,-0.685,-0.415
2255,-0.685,-0.425
2256,-0.685,-0.440
2257,-0.700,-0.440
2258,-0.705,-0.440
2259,-0.715,-0.425
2260,-0.710,-0.435
2261,-0.705,-0.420
2262,-0.695,-0.400
2263,-0.695,-0.400
2264,-0.695,-0.400
2265,-0.690,-0.415
2266,-0.690,-0.415
2267,-0.690,-0.430
2268,-0.695,-0.435
2269,-0.700,-0.435
2270,-0.715,-0.430
2271,-0.715,-0.430
2272,-0.715,-0.420
2273,-0.715,-0.405
2274,-0.715,-0.410
2275,-0.700,-0.410
2276,-0.675,-0.410
2277,-0.685,-0.420
2278,-0.690,-0.420
2279,-0.695,-0.435
2280,-0.715,-0.440
2281,-0.720,-0.445
2282,-0.725,-0.445
2283,-0.720,-0.440
2284,-0.710,-0.425
2285,-0.715,-0.425
2286,-0.710,-0.400
2287,-0.705,-0.395
2288,-0.710,-0.410
2289,-0.705,-0.425
2290,-0.705,-0.435
2291,-0.710,-0.435
2292,-0.705,-0.445
2293,-0.705,-0.435
2294,-0.710,-0.430
2295,-0.705,-0.425
2296,-0.700,-0.415
2297,-0.695,-0.415
2298,-0.685,-0.405
2299,-0.685,-0.395
2300,-0.675,-0.410
2301,-0.675,-0.425
2302,-0.685,-0.410
2303,-0.695,-0.425
2304,-0.700,-0.435
2305,-0.700,-0.440
2306,-0.720,-0.435
2307,-0.705,-0.425
2308,-0.700,-0.420
2309,-0.695,-0.420
2310,-0.680,-0.420
2311,-0.680,-0.405
2312,-0.675,-0.400
2313,-0.675,-0.415
2314,-0.695,-0.425
2315,-0.695,-0.430
2316,-0.705,-0.435
2317,-0.720,-0.435
2318,-0.720,-0.425
2319,-0.715,-0.425
2320,-0.725,-0.425
2321,-0.700,-0.410
2322,-0.705,-0.410
2323,-0.695,-0.405
2324,-0.690,-0.405
2325,-0.705,-0.410
2326,-0.700,-0.420
2327,-0.705,-0.425
2328,-0.695,-0.430
2329,-0.705,-0.430
2330,-0.720,-0.440
2331,-0.715,-0.440
2332,-0.720,-0.420
2333,-0.710,-0.405
2334,-0.700,-0.410
2335,-0.695,-0.400
2336,-0.685,-0.415
2337,-0.690,-0.400
2338,-0.700,-0.420
2339,-0.700,-0.410
2340,-0.710,-0.425
2341,-0.730,-0.430
2342,-0.735,-0.425
2343,-0.730,-0.415
2344,-0.715,-0.410
2345,-0.710,-0.405
2346,-0.710,-0.415
2347,-0.705,-0.405
2348,-0.690,-0.410
2349,-0.690,-0.415
2350,-0.705,-0.420
2351,-0.710,-0.440
2352,-0.715,-0.430
2353,-0.720,-0.430
2354,-0.725,-0.435
2355,-0.725,-0.425
2356,-0.720,-0.415
2357,-0.715,-0.425
2358,-0.710,-0.405
2359,-0.710,-0.400
2360,-0.710,-0.395
2361,-0.700,-0.410
2362,-0.705,-0.395
2363,-0.705,-0.410
2364,-0.700,-0.425
2365,-0.700,-0.425
2366,-0.705,-0.435
2367,-0.705,-0.425
2368,-0.695,-0.420
2369,-0.695,-0.420
2370,-0.695,-0.405
2371,-0.690,-0.390
2372,-0.690,-0.405
2373,-0.685,-0.400
2374,-0.685,-0.405
2375,-0.665,-0.405
2376,-0.670,-0.410
2377,-0.675,-0.425
2378,-0.655,-0.430
2379,-0.660,-0.435
2380,-0.655,-0.425
2381,-0.655,-0.410
2382,-0.650,-0.400
2383,-0.655,-0.390
2384,-0.650,-0.385
2385,-0.665,-0.385
2386,-0.670,-0.390
2387,-0.690,-0.390
2388,-0.685,-0.410
2389,-0.700,-0.425
2390,-0.705,-0.415
2391,-0.710,-0.405
2392,-0.695,-0.390
2393,-0.675,-0.375
2394,-0.660,-0.340
2395,-0.640,-0.335
2396,-0.625,-0.320
2397,-0.625,-0.340
2398,-0.625,-0.360
2399,-0.640,-0.365
2400,-0.660,-0.375
2401,-0.685,-0.385
2402,-0.700,-0.400
2403,-0.720,-0.405
2404,-0.740,-0.415
2405,-0.740,-0.415
2406,-0.740,-0.400
2407,-0.745,-0.395
2408,-0.730,-0.395
2409,-0.730,-0.400
2410,-0.730,-0.420
2411,-0.745,-0.420
2412,-0.750,-0.425
2413,-0.755,-0.435
2414,-0.760,-0.440
2415,-0.765,-0.450
2416,-0.765,-0.450
2417,-0.770,-0.455
2418,-0.775,-0.470
2419,-0.765,-0.450
2420,-0.730,-0.380
2421,-0.675,-0.270
2422,-0.595,-0.160
2423,-0.495,-0.080
2424,-0.435,-0.025
2425,-0.380,-0.050
2426,-0.360,-0.160
2427,-0.390,-0.335
2428,-0.480,-0.600
2429,-0.615,-0.885
2430,-0.725,-1.095
2431,-0.790,-1.190
2432,-0.740,-1.130
2433,-0.600,-0.945
2434,-0.370,-0.720
2435,-0.105,-0.485
2436,0.170,-0.295
2437,0.445,-0.160
2438,0.690,-0.075
2439,0.920,-0.035
2440,1.120,-0.005
2441,1.300,-0.010
2442,1.395,-0.035
2443,1.445,-0.085
2444,1.430,-0.185
2445,1.350,-0.280
2446,1.230,-0.350
2447,1.030,-0.420
2448,0.790,-0.450
2449,0.535,-0.435
2450,0.295,-0.425
2451,0.065,-0.385
2452,-0.150,-0.360
2453,-0.390,-0.355
2454,-0.615,-0.400
2455,-0.790,-0.440
2456,-0.920,-0.480
2457,-1.005,-0.505
2458,-1.045,-0.495
2459,-1.055,-0.480
2460,-1.040,-0.445
2461,-1.020,-0.420
2462,-1.005,-0.390
2463,-0.990,-0.350
2464,-0.965,-0.310
2465,-0.940,-0.310
2466,-0.915,-0.270
2467,-0.900,-0.265
2468,-0.900,-0.270
2469,-0.900,-0.285
2470,-0.905,-0.295
2471,-0.915,-0.290
2472,-0.910,-0.310
2473,-0.920,-0.305
2474,-0.925,-0.305
2475,-0.920,-0.305
2476,-0.925,-0.285
2477,-0.930,-0.285
2478,-0.905,-0.260
2479,-0.910,-0.265
2480,-0.895,-0.265
2481,-0.900,-0.265
2482,-0.905,-0.270
2483,-0.910,-0.285
2484,-0.915,-0.285
2485,-0.930,-0.295
2486,-0.920,-0.285
2487,-0.940,-0.285
2488,-0.925,-0.275
2489,-0.930,-0.270
2490,-0.930,-0.250
2491,-0.930,-0.255
2492,-0.910,-0.240
2493,-0.920,-0.255
2494,-0.920,-0.260
2495,-0.925,-0.270
2496,-0.950,-0.275
2497,-0.940,-0.270
2498,-0.945,-0.270
2499,-0.950,-0.270
2500,-0.945,-0.245
2501,-0.945,-0.255
2502,-0.950,-0.250
2503,-0.950,-0.255
2504,-0.930,-0.250
2505,-0.935,-0.255
2506,-0.945,-0.260
2507,-0.955,-0.280
2508,-0.965,-0.275
2509,-0.975,-0.285
2510,-0.980,-0.280
2511,-1.005,-0.295
2512,-1.000,-0.290
2513,-1.000,-0.285
2514,-0.975,-0.290
2515,-0.970,-0.290
2516,-0.975,-0.295
2517,-0.975,-0.295
2518,-0.990,-0.295
2519,-1.000,-0.310
2520,-1.015,-0.325
2521,-1.025,-0.335
2522,-1.030,-0.350
2523,-1.045,-0.355
2524,-1.040,-0.345
2525,-1.040,-0.345
2526,-1.030,-0.340
2527,-1.030,-0.340
2528,-1.030,-0.345
2529,-1.030,-0.350
2530,-1.050,-0.370
2531,-1.055,-0.395
2532,-1.070,-0.415
2533,-1.080,-0.430
2534,-1.090,-0.445
2535,-1.095,-0.445
2536,-1.100,-0.450
2537,-1.090,-0.445
2538,-1.095,-0.435
2539,-1.085,-0.430
2540,-1.075,-0.445
2541,-1.085,-0.450
2542,-1.095,-0.465
2543,-1.100,-0.465
2544,-1.090,-0.490
2545,-1.105,-0.500
2546,-1.100,-0.510
2547,-1.100,-0.520
2548,-1.090,-0.530
2549,-1.090,-0.520
2550,-1.065,-0.510
2551,-1.050,-0.500
2552,-1.040,-0.495
2553,-1.025,-0.505
2554,-1.015,-0.515
2555,-1.005,-0.520
2556,-1.000,-0.530
2557,-0.995,-0.535
2558,-0.990,-0.535
2559,-0.975,-0.535
2560,-0.960,-0.515
2561,-0.945,-0.510
2562,-0.920,-0.495
2563,-0.895,-0.480
2564,-0.875,-0.480
2565,-0.860,-0.485
2566,-0.845,-0.490
2567,-0.835,-0.495
2568,-0.830,-0.500
2569,-0.825,-0.505
2570,-0.810,-0.505
2571,-0.805,-0.485
2572,-0.795,-0.480
2573,-0.775,-0.470
2574,-0.780,-0.470
2575,-0.770,-0.460
2576,-0.750,-0.455
2577,-0.745,-0.475
2578,-0.740,-0.480
2579,-0.745,-0.480
2580,-0.750,-0.500
2581,-0.745,-0.480
2582,-0.745,-0.495
2583,-0.750,-0.480
2584,-0.755,-0.485
2585,-0.750,-0.465
2586,-0.750,-0.465
2587,-0.745,-0.470
2588,-0.755,-0.460
2589,-0.770,-0.480
2590,-0.775,-0.480
2591,-0.785,-0.490
2592,-0.800,-0.505
2593,-0.825,-0.510
2594,-0.835,-0.505
2595,-0.850,-0.505
2596,-0.865,-0.505
2597,-0.870,-0.485
2598,-0.875,-0.480
2599,-0.880,-0.485
2600,-0.880,-0.485
2601,-0.895,-0.500
2602,-0.900,-0.505
2603,-0.910,-0.520
2604,-0.915,-0.530
2605,-0.935,-0.535
2606,-0.935,-0.540
2607,-0.955,-0.540
2608,-0.970,-0.530
2609,-0.955,-0.530
2610,-0.950,-0.515
2611,-0.955,-0.505
2612,-0.940,-0.525
2613,-0.945,-0.510
2614,-0.950,-0.510
2615,-0.965,-0.530
2616,-0.980,-0.520
2617,-0.975,-0.530
2618,-0.980,-0.515
2619,-0.980,-0.520
2620,-0.975,-0.505
2621,-0.975,-0.505
2622,-0.950,-0.490
2623,-0.935,-0.490
2624,-0.935,-0.480
2625,-0.940,-0.490
2626,-0.940,-0.495
2627,-0.930,-0.505
2628,-0.940,-0.515
2629,-0.945,-0.515
2630,-0.955,-0.505
2631,-0.945,-0.495
2632,-0.935,-0.475
2633,-0.935,-0.485
2634,-0.920,-0.485
2635,-0.915,-0.465
2636,-0.900,-0.460
2637,-0.895,-0.470
2638,-0.910,-0.455
2639,-0.925,-0.460
2640,-0.925,-0.475
2641,-0.910,-0.470
2642,-0.915,-0.470
2643,-0.905,-0.455
2644,-0.895,-0.450
2645,-0.900,-0.435
2646,-0.890,-0.440
2647,-0.880,-0.435
2648,-0.875,-0.435
2649,-0.875,-0.435
2650,-0.875,-0.430
2651,-0.885,-0.440
2652,-0.880,-0.440
2653,-0.885,-0.450
2654,-0.895,-0.445
2655,-0.890,-0.435
2656,-0.880,-0.430
2657,-0.880,-0.435
2658,-0.865,-0.440
2659,-0.860,-0.430
2660,-0.855,-0.430
2661,-0.865,-0.430
2662,-0.865,-0.425
2663,-0.875,-0.430
2664,-0.870,-0.425
2665,-0.880,-0.435
2666,-0.885,-0.445
2667,-0.880,-0.445
2668,-0.875,-0.440
2669,-0.870,-0.430
2670,-0.855,-0.420
2671,-0.865,-0.430
2672,-0.860,-0.420
2673,-0.855,-0.420
2674,-0.855,-0.415
2675,-0.850,-0.425
2676,-0.865,-0.425
2677,-0.875,-0.440
2678,-0.875,-0.455
2679,-0.880,-0.450
2680,-0.870,-0.435
2681,-0.875,-0.435
2682,-0.870,-0.430
2683,-0.865,-0.410
2684,-0.840,-0.400
2685,-0.840,-0.390
2686,-0.845,-0.390
2687,-0.855,-0.405
2688,-0.865,-0.415
2689,-0.880,-0.435
2690,-0.875,-0.440
2691,-0.885,-0.425
2692,-0.875,-0.415
2693,-0.860,-0.400
2694,-0.860,-0.410
2695,-0.855,-0.395
2696,-0.840,-0.385
2697,-0.835,-0.410
2698,-0.835,-0.410
2699,-0.845,-0.410
2700,-0.860,-0.435
2701,-0.880,-0.445
2702,-0.880,-0.440
2703,-0.880,-0.435
2704,-0.865,-0.420
2705,-0.855,-0.405
2706,-0.845,-0.395
2707,-0.835,-0.395
2708,-0.830,-0.390
2709,-0.820,-0.400
2710,-0.835,-0.400
2711,-0.850,-0.415
2712,-0.845,-0.415
2713,-0.850,-0.415
2714,-0.865,-0.410
2715,-0.865,-0.405
2716,-0.860,-0.405
2717,-0.860,-0.395
2718,-0.855,-0.385
2719,-0.840,-0.385
2720,-0.840,-0.380
2721,-0.845,-0.395
2722,-0.845,-0.415
2723,-0.855,-0.415
2724,-0.865,-0.420
2725,-0.870,-0.425
2726,-0.870,-0.415
2727,-0.885,-0.405
2728,-0.870,-0.395
2729,-0.865,-0.390
2730,-0.845,-0.385
2731,-0.830,-0.380
2732,-0.825,-0.380
2733,-0.825,-0.380
2734,-0.835,-0.380
2735,-0.835,-0.385
2736,-0.850,-0.400
2737,-0.855,-0.395
2738,-0.850,-0.410
2739,-0.850,-0.415
2740,-0.855,-0.395
2741,-0.850,-0.395
2742,-0.835,-0.395
2743,-0.835,-0.400
2744,-0.840,-0.400
2745,-0.835,-0.395
2746,-0.830,-0.380
2747,-0.825,-0.385
2748,-0.835,-0.380
2749,-0.845,-0.405
2750,-0.850,-0.405
2751,-0.865,-0.395
2752,-0.860,-0.405
2753,-0.850,-0.400
2754,-0.835,-0.395
2755,-0.845,-0.380
2756,-0.825,-0.370
2757,-0.825,-0.390
2758,-0.820,-0.360
2759,-0.825,-0.380
2760,-0.840,-0.390
2761,-0.845,-0.385
2762,-0.860,-0.390
2763,-0.855,-0.405
2764,-0.855,-0.395
2765,-0.855,-0.385
2766,-0.845,-0.370
2767,-0.845,-0.365
2768,-0.830,-0.360
2769,-0.825,-0.370
2770,-0.830,-0.380
2771,-0.835,-0.385
2772,-0.835,-0.400
2773,-0.850,-0.405
2774,-0.855,-0.400
2775,-0.860,-0.390
2776,-0.855,-0.375
2777,-0.845,-0.365
2778,-0.830,-0.355
2779,-0.830,-0.350
2780,-0.820,-0.355
2781,-0.830,-0.365
2782,-0.830,-0.360
2783,-0.825,-0.370
2784,-0.830,-0.380
2785,-0.845,-0.385
2786,-0.850,-0.390
2787,-0.860,-0.380
2788,-0.865,-0.385
2789,-0.845,-0.355
2790,-0.845,-0.345
2791,-0.825,-0.355
2792,-0.805,-0.360
2793,-0.815,-0.370
2794,-0.820,-0.375
2795,-0.825,-0.380
2796,-0.830,-0.390
2797,-0.830,-0.385
2798,-0.840,-0.400
2799,-0.840,-0.390
2800,-0.835,-0.385
2801,-0.830,-0.390
2802,-0.825,-0.375
2803,-0.820,-0.370
2804,-0.800,-0.370
2805,-0.795,-0.375
2806,-0.800,-0.385
2807,-0.805,-0.390
2808,-0.820,-0.405
2809,-0.825,-0.410
2810,-0.835,-0.405
2811,-0.840,-0.390
2812,-0.835,-0.385
2813,-0.825,-0.380
2814,-0.810,-0.380
2815,-0.795,-0.375
2816,-0.765,-0.360
2817,-0.760,-0.370
2818,-0.755,-0.375
2819,-0.765,-0.385
2820,-0.770,-0.385
2821,-0.775,-0.390
2822,-0.795,-0.390
2823,-0.810,-0.390
2824,-0.820,-0.375
2825,-0.810,-0.380
2826,-0.800,-0.355
2827,-0.790,-0.350
2828,-0.780,-0.335
2829,-0.795,-0.335
2830,-0.800,-0.335
2831,-0.780,-0.330
2832,-0.775,-0.345
2833,-0.785,-0.345
2834,-0.775,-0.355
2835,-0.775,-0.360
2836,-0.780,-0.370
2837,-0.790,-0.355
2838,-0.795,-0.365
2839,-0.815,-0.365
2840,-0.830,-0.365
2841,-0.845,-0.390
2842,-0.855,-0.405
2843,-0.870,-0.430
2844,-0.870,-0.430
2845,-0.875,-0.420
2846,-0.880,-0.440
2847,-0.890,-0.420
2848,-0.895,-0.420
2849,-0.885,-0.415
2850,-0.875,-0.415
2851,-0.865,-0.405
2852,-0.860,-0.425
2853,-0.875,-0.425
2854,-0.875,-0.440
2855,-0.885,-0.470
2856,-0.900,-0.485
2857,-0.910,-0.485
2858,-0.890,-0.440
2859,-0.850,-0.350
2860,-0.780,-0.230
2861,-0.680,-0.110
2862,-0.580,-0.020
2863,-0.500,0.035
2864,-0.445,0.035
2865,-0.420,-0.030
2866,-0.435,-0.190
2867,-0.505,-0.420
2868,-0.640,-0.700
2869,-0.795,-0.975
2870,-0.955,-1.195
2871,-1.040,-1.310
2872,-1.040,-1.280
2873,-0.910,-1.160
2874,-0.720,-0.980
2875,-0.470,-0.805
2876,-0.215,-0.635
2877,0.000,-0.520
2878,0.190,-0.435
2879,0.390,-0.395
2880,0.565,-0.365
2881,0.730,-0.355
2882,0.855,-0.345
2883,0.965,-0.355
2884,1.015,-0.375
2885,1.010,-0.410
2886,0.970,-0.425
2887,0.910,-0.420
2888,0.810,-0.395
2889,0.655,-0.385
2890,0.470,-0.380
2891,0.285,-0.370
2892,0.085,-0.360
2893,-0.100,-0.360
2894,-0.295,-0.370
2895,-0.515,-0.400
2896,-0.730,-0.430
2897,-0.885,-0.455
2898,-0.990,-0.480
2899,-1.070,-0.490
2900,-1.100,-0.470
2901,-1.105,-0.445
2902,-1.095,-0.420
2903,-1.075,-0.390
2904,-1.050,-0.365
2905,-1.030,-0.345
2906,-1.025,-0.335
2907,-1.015,-0.320
2908,-1.010,-0.310
2909,-1.005,-0.280
2910,-0.990,-0.265
2911,-0.975,-0.260
2912,-0.970,-0.270
2913,-0.960,-0.265
2914,-0.975,-0.275
2915,-0.985,-0.285
2916,-1.005,-0.295
2917,-1.005,-0.295
2918,-1.010,-0.300
2919,-1.000,-0.295
2920,-1.000,-0.295
2921,-1.000,-0.280
2922,-0.990,-0.280
2923,-0.985,-0.270
2924,-0.980,-0.260
2925,-0.985,-0.250
2926,-0.980,-0.265
2927,-0.990,-0.275
2928,-1.000,-0.280
2929,-1.005,-0.295
2930,-1.010,-0.295
2931,-1.010,-0.300
2932,-1.020,-0.280
2933,-1.025,-0.270
2934,-1.000,-0.260
2935,-1.020,-0.255
2936,-1.010,-0.245
2937,-0.990,-0.245
2938,-1.000,-0.265
2939,-1.005,-0.280
2940,-1.025,-0.290
2941,-1.020,-0.295
2942,-1.040,-0.285
2943,-1.060,-0.285
2944,-1.035,-0.280
2945,-1.045,-0.270
2946,-1.045,-0.270
2947,-1.045,-0.280
2948,-1.030,-0.280
2949,-1.035,-0.285
2950,-1.030,-0.275
2951,-1.025,-0.290
2952,-1.045,-0.295
2953,-1.050,-0.305
2954,-1.070,-0.315
2955,-1.070,-0.310
2956,-1.075,-0.295
2957,-1.080,-0.290
2958,-1.070,-0.290
2959,-1.080,-0.285
2960,-1.070,-0.275
2961,-1.080,-0.300
2962,-1.080,-0.320
2963,-1.090,-0.335
2964,-1.100,-0.340
2965,-1.110,-0.345
2966,-1.125,-0.355
2967,-1.130,-0.355
2968,-1.135,-0.355
2969,-1.125,-0.340
2970,-1.140,-0.350
2971,-1.150,-0.355
2972,-1.145,-0.385
2973,-1.140,-0.380
2974,-1.145,-0.395
2975,-1.155,-0.410
2976,-1.165,-0.430
2977,-1.170,-0.440
2978,-1.185,-0.455
2979,-1.190,-0.470
2980,-1.190,-0.460
2981,-1.200,-0.465
2982,-1.195,-0.470
2983,-1.190,-0.475
2984,-1.195,-0.485
2985,-1.200,-0.500
2986,-1.200,-0.515
2987,-1.200,-0.540
2988,-1.210,-0.545
2989,-1.225,-0.570
2990,-1.220,-0.565
2991,-1.225,-0.580
2992,-1.225,-0.580
2993,-1.215,-0.580
2994,-1.205,-0.590
2995,-1.190,-0.595
2996,-1.185,-0.600
2997,-1.170,-0.600
2998,-1.175,-0.620
2999,-1.170,-0.640
3000,-1.165,-0.645
3001,-1.165,-0.655
3002,-1.155,-0.650
3003,-1.140,-0.650
3004,-1.125,-0.640
3005,-1.110,-0.650
3006,-1.095,-0.640
3007,-1.080,-0.640
3008,-1.045,-0.630
3009,-1.030,-0.640
3010,-1.020,-0.640
3011,-1.010,-0.655
3012,-1.000,-0.665
3013,-0.985,-0.655
3014,-0.975,-0.660
3015,-0.960,-0.655
3016,-0.940,-0.660
3017,-0.930,-0.630
3018,-0.905,-0.625
3019,-0.905,-0.620
3020,-0.885,-0.605
3021,-0.880,-0.610
3022,-0.860,-0.610
3023,-0.855,-0.605
3024,-0.855,-0.620
3025,-0.860,-0.620
3026,-0.855,-0.610
3027,-0.850,-0.605
3028,-0.850,-0.595
3029,-0.850,-0.580
3030,-0.840,-0.570
3031,-0.840,-0.555
3032,-0.820,-0.555
3033,-0.840,-0.570
3034,-0.845,-0.570
3035,-0.865,-0.580
3036,-0.880,-0.575
3037,-0.890,-0.585
3038,-0.905,-0.600
3039,-0.915,-0.585
3040,-0.925,-0.585
3041,-0.925,-0.565
3042,-0.930,-0.560
3043,-0.935,-0.550
3044,-0.940,-0.545
3045,-0.950,-0.550
3046,-0.970,-0.565
3047,-0.975,-0.565
3048,-0.990,-0.585
3049,-1.000,-0.575
3050,-1.025,-0.580
3051,-1.020,-0.575
3052,-1.020,-0.570
3053,-1.025,-0.555
3054,-1.020,-0.560
3055,-1.015,-0.555
3056,-1.005,-0.550
3057,-1.015,-0.550
3058,-1.025,-0.545
3059,-1.025,-0.570
3060,-1.035,-0.585
3061,-1.040,-0.585
3062,-1.045,-0.570
3063,-1.045,-0.580
3064,-1.050,-0.565
3065,-1.045,-0.555
3066,-1.025,-0.570
3067,-1.025,-0.560
3068,-1.015,-0.555
3069,-1.020,-0.555
3070,-1.020,-0.555
3071,-1.020,-0.575
3072,-1.010,-0.570
3073,-1.025,-0.575
3074,-1.025,-0.570
3075,-1.025,-0.560
3076,-1.020,-0.555
3077,-1.010,-0.545
3078,-1.005,-0.535
3079,-0.990,-0.540
3080,-0.980,-0.530
3081,-0.980,-0.515
3082,-0.985,-0.520
3083,-0.995,-0.540
3084,-1.005,-0.530
3085,-0.995,-0.535
3086,-1.010,-0.545
3087,-0.990,-0.540
3088,-0.990,-0.535
3089,-1.000,-0.525
3090,-0.985,-0.530
3091,-0.990,-0.530
3092,-0.975,-0.515
3093,-0.970,-0.520
3094,-0.975,-0.515
3095,-0.980,-0.520
3096,-0.980,-0.535
3097,-0.985,-0.540
3098,-0.985,-0.550
3099,-0.990,-0.545
3100,-0.995,-0.530
3101,-0.980,-0.535
3102,-0.975,-0.520
3103,-0.965,-0.510
3104,-0.960,-0.505
3105,-0.960,-0.510
3106,-0.965,-0.505
3107,-0.970,-0.525
3108,-0.980,-0.540
3109,-0.985,-0.550
3110,-0.995,-0.550
3111,-0.995,-0.545
3112,-1.000,-0.535
3113,-0.980,-0.525
3114,-0.970,-0.530
3115,-0.965,-0.520
3116,-0.955,-0.510
3117,-0.950,-0.515
3118,-0.970,-0.520
3119,-0.975,-0.530
3120,-0.970,-0.535
3121,-1.000,-0.540
3122,-0.985,-0.555
3123,-0.985,-0.550
3124,-0.990,-0.545
3125,-0.985,-0.530
3126,-0.970,-0.520
3127,-0.965,-0.510
3128,-0.950,-0.515
3129,-0.960,-0.515
3130,-0.955,-0.535
3131,-0.965,-0.530
3132,-0.970,-0.540
3133,-0.985,-0.545
3134,-0.985,-0.540
3135,-0.980,-0.550
3136,-0.995,-0.540
3137,-0.970,-0.530
3138,-0.960,-0.540
3139,-0.960,-0.515
3140,-0.960,-0.520
3141,-0.965,-0.515
3142,-0.980,-0.535
3143,-0.975,-0.535
3144,-0.975,-0.545
3145,-0.980,-0.560
3146,-0.980,-0.555
3147,-0.980,-0.545
3148,-0.975,-0.540
3149,-0.985,-0.535
3150,-0.980,-0.530
3151,-0.970,-0.530
3152,-0.965,-0.530
3153,-0.955,-0.525
3154,-0.960,-0.530
3155,-0.970,-0.545
3156,-0.975,-0.540
3157,-0.980,-0.555
3158,-0.980,-0.560
3159,-0.980,-0.550
3160,-0.980,-0.540
3161,-0.980,-0.545
3162,-0.970,-0.545
3163,-0.965,-0.530
3164,-0.960,-0.535
3165,-0.960,-0.545
3166,-0.960,-0.555
3167,-0.970,-0.545
3168,-0.975,-0.555
3169,-0.975,-0.560
3170,-0.985,-0.560
3171,-0.995,-0.565
3172,-0.980,-0.555
3173,-0.975,-0.555
3174,-0.985,-0.540
3175,-0.975,-0.540
3176,-0.965,-0.540
3177,-0.960,-0.540
3178,-0.965,-0.550
3179,-0.980,-0.555
3180,-0.975,-0.550
3181,-0.990,-0.560
3182,-1.000,-0.565
3183,-1.000,-0.565
3184,-0.970,-0.570
3185,-0.975,-0.560
3186,-0.975,-0.545
3187,-0.955,-0.540
3188,-0.960,-0.525
3189,-0.955,-0.530
3190,-0.970,-0.530
3191,-0.975,-0.545
3192,-0.985,-0.530
3193,-0.995,-0.555
3194,-0.995,-0.560
3195,-0.995,-0.570
3196,-1.005,-0.560
3197,-0.985,-0.545
3198,-0.980,-0.530
3199,-0.975,-0.535
3200,-0.955,-0.520
3201,-0.950,-0.525
3202,-0.970,-0.545
3203,-0.970,-0.550
3204,-0.970,-0.550
3205,-0.980,-0.560
3206,-0.985,-0.565
3207,-0.980,-0.565
3208,-0.990,-0.550
3209,-0.970,-0.535
3210,-0.965,-0.535
3211,-0.960,-0.525
3212,-0.950,-0.525
3213,-0.955,-0.535
3214,-0.955,-0.535
3215,-0.960,-0.545
3216,-0.970,-0.555
3217,-0.975,-0.555
3218,-0.985,-0.555
3219,-0.985,-0.550
3220,-0.970,-0.555
3221,-0.970,-0.540
3222,-0.970,-0.530
3223,-0.955,-0.520
3224,-0.945,-0.530
3225,-0.940,-0.540
3226,-0.945,-0.555
3227,-0.950,-0.555
3228,-0.950,-0.560
3229,-0.965,-0.565
3230,-0.960,-0.565
3231,-0.965,-0.560
3232,-0.950,-0.550
3233,-0.960,-0.555
3234,-0.960,-0.545
3235,-0.950,-0.545
3236,-0.935,-0.530
3237,-0.925,-0.535
3238,-0.920,-0.525
3239,-0.925,-0.535
3240,-0.920,-0.535
3241,-0.915,-0.535
3242,-0.915,-0.540
3243,-0.910,-0.545
3244,-0.910,-0.530
3245,-0.905,-0.540
3246,-0.905,-0.535
3247,-0.905,-0.530
3248,-0.900,-0.525
3249,-0.900,-0.535
3250,-0.910,-0.535
3251,-0.930,-0.540
3252,-0.940,-0.540
3253,-0.940,-0.540
3254,-0.955,-0.530
3255,-0.960,-0.535
3256,-0.945,-0.535
3257,-0.935,-0.510
3258,-0.915,-0.495
3259,-0.900,-0.485
3260,-0.870,-0.485
3261,-0.865,-0.470
3262,-0.870,-0.490
3263,-0.890,-0.490
3264,-0.890,-0.520
3265,-0.910,-0.520
3266,-0.940,-0.550
3267,-0.965,-0.555
3268,-0.980,-0.555
3269,-0.985,-0.550
3270,-0.990,-0.570
3271,-1.000,-0.560
3272,-0.985,-0.555
3273,-0.985,-0.565
3274,-0.995,-0.565
3275,-0.980,-0.570
3276,-0.995,-0.570
3277,-0.990,-0.595
3278,-0.995,-0.595
3279,-1.010,-0.615
3280,-1.015,-0.625
3281,-1.025,-0.630
3282,-1.025,-0.610
3283,-1.005,-0.560
3284,-0.950,-0.455
3285,-0.880,-0.350
3286,-0.770,-0.250
3287,-0.690,-0.190
3288,-0.635,-0.190
3289,-0.590,-0.250
3290,-0.605,-0.410
3291,-0.655,-0.655
3292,-0.790,-0.945
3293,-0.930,-1.185
3294,-1.015,-1.310
3295,-1.010,-1.275
3296,-0.880,-1.125
3297,-0.665,-0.890
3298,-0.390,-0.665
3299,-0.105,-0.465
3300,0.165,-0.330
3301,0.435,-0.225
3302,0.660,-0.190
3303,0.855,-0.160
3304,1.035,-0.150
3305,1.165,-0.160
3306,1.250,-0.200
3307,1.260,-0.290
3308,1.210,-0.385
3309,1.115,-0.480
3310,0.955,-0.535
3311,0.750,-0.585
3312,0.510,-0.595
3313,0.260,-0.580
3314,0.015,-0.550
3315,-0.220,-0.510
3316,-0.440,-0.495
3317,-0.660,-0.515
3318,-0.850,-0.540
3319,-1.005,-0.600
3320,-1.125,-0.640
3321,-1.205,-0.645
3322,-1.245,-0.650
3323,-1.250,-0.610
3324,-1.255,-0.600
3325,-1.250,-0.565
3326,-1.225,-0.530
3327,-1.205,-0.515
3328,-1.185,-0.495
3329,-1.165,-0.470
3330,-1.145,-0.445
3331,-1.125,-0.435
3332,-1.110,-0.415
3333,-1.100,-0.415
3334,-1.105,-0.420
3335,-1.115,-0.420
3336,-1.130,-0.425
3337,-1.150,-0.425
3338,-1.150,-0.425
3339,-1.155,-0.430
3340,-1.145,-0.410
3341,-1.140,-0.405
3342,-1.135,-0.405
3343,-1.140,-0.400
3344,-1.130,-0.380
3345,-1.120,-0.395
3346,-1.115,-0.390
3347,-1.125,-0.395
3348,-1.140,-0.405
3349,-1.135,-0.405
3350,-1.160,-0.405
3351,-1.165,-0.410
3352,-1.170,-0.400
3353,-1.150,-0.400
3354,-1.150,-0.375
3355,-1.140,-0.375
3356,-1.130,-0.365
3357,-1.135,-0.370
3358,-1.140,-0.375
3359,-1.140,-0.390
3360,-1.155,-0.405
3361,-1.165,-0.415
3362,-1.170,-0.420
3363,-1.175,-0.410
3364,-1.175,-0.405
3365,-1.175,-0.390
3366,-1.170,-0.395
3367,-1.150,-0.390
3368,-1.145,-0.375
3369,-1.150,-0.390
3370,-1.160,-0.395
3371,-1.165,-0.415
3372,-1.180,-0.425
3373,-1.180,-0.435
3374,-1.185,-0.445
3375,-1.200,-0.440
3376,-1.205,-0.440
3377,-1.205,-0.430
3378,-1.195,-0.430
3379,-1.205,-0.415
3380,-1.190,-0.415
3381,-1.190,-0.430
3382,-1.200,-0.445
3383,-1.205,-0.460
3384,-1.215,-0.465
3385,-1.235,-0.470
3386,-1.250,-0.485
3387,-1.245,-0.495
3388,-1.265,-0.480
3389,-1.245,-0.480
3390,-1.255,-0.485
3391,-1.255,-0.485
3392,-1.250,-0.475
3393,-1.250,-0.490
3394,-1.245,-0.500
3395,-1.265,-0.525
3396,-1.275,-0.530
3397,-1.275,-0.535
3398,-1.300,-0.555
3399,-1.300,-0.565
3400,-1.300,-0.565
3401,-1.305,-0.560
3402,-1.305,-0.555
3403,-1.295,-0.560
3404,-1.295,-0.575
3405,-1.305,-0.585
3406,-1.295,-0.590
3407,-1.300,-0.610
3408,-1.310,-0.625
3409,-1.310,-0.635
3410,-1.315,-0.640
3411,-1.315,-0.645
3412,-1.310,-0.635
3413,-1.300,-0.640
3414,-1.295,-0.640
3415,-1.280,-0.625
3416,-1.270,-0.625
3417,-1.250,-0.640
3418,-1.225,-0.655
3419,-1.230,-0.655
3420,-1.205,-0.665
3421,-1.210,-0.665
3422,-1.190,-0.665
3423,-1.170,-0.660
3424,-1.170,-0.660
3425,-1.150,-0.645
3426,-1.120,-0.630
3427,-1.115,-0.615
3428,-1.080,-0.605
3429,-1.070,-0.605
3430,-1.055,-0.610
3431,-1.050,-0.615
3432,-1.035,-0.620
3433,-1.020,-0.625
3434,-1.015,-0.620
3435,-1.005,-0.630
3436,-1.010,-0.620
3437,-0.985,-0.615
3438,-0.975,-0.590
3439,-0.960,-0.590
3440,-0.935,-0.590
3441,-0.930,-0.585
3442,-0.940,-0.600
3443,-0.935,-0.605
3444,-0.935,-0.610
3445,-0.940,-0.615
3446,-0.950,-0.625
3447,-0.950,-0.620
3448,-0.965,-0.610
3449,-0.960,-0.605
3450,-0.970,-0.605
3451,-0.970,-0.610
3452,-0.965,-0.610
3453,-0.975,-0.625
3454,-0.990,-0.630
3455,-0.990,-0.645
3456,-1.015,-0.640
3457,-1.025,-0.655
3458,-1.045,-0.650
3459,-1.060,-0.645
3460,-1.060,-0.635
3461,-1.065,-0.625
3462,-1.075,-0.620
3463,-1.070,-0.625
3464,-1.075,-0.630
3465,-1.075,-0.630
3466,-1.095,-0.630
3467,-1.090,-0.645
3468,-1.095,-0.660
3469,-1.120,-0.655
3470,-1.125,-0.655
3471,-1.125,-0.660
3472,-1.125,-0.650
3473,-1.130,-0.640
3474,-1.125,-0.630
3475,-1.130,-0.630
3476,-1.120,-0.620
3477,-1.115,-0.620
3478,-1.120,-0.615
3479,-1.115,-0.615
3480,-1.125,-0.635
3481,-1.125,-0.635
3482,-1.135,-0.645
3483,-1.140,-0.645
3484,-1.135,-0.645
3485,-1.130,-0.615
3486,-1.120,-0.620
3487,-1.115,-0.605
3488,-1.105,-0.605
3489,-1.105,-0.605
3490,-1.110,-0.605
3491,-1.100,-0.610
3492,-1.100,-0.610
3493,-1.095,-0.625
3494,-1.095,-0.630
3495,-1.090,-0.610
3496,-1.085,-0.590
3497,-1.075,-0.580
3498,-1.065,-0.565
3499,-1.055,-0.570
3500,-1.055,-0.570
3501,-1.060,-0.565
3502,-1.070,-0.580
3503,-1.045,-0.585
3504,-1.060,-0.585
3505,-1.065,-0.595
3506,-1.060,-0.590
3507,-1.060,-0.575
3508,-1.065,-0.565
3509,-1.050,-0.540
3510,-1.040,-0.545
3511,-1.035,-0.535
3512,-1.030,-0.530
3513,-1.025,-0.545
3514,-1.025,-0.555
3515,-1.025,-0.570
3516,-1.030,-0.565
3517,-1.030,-0.570
3518,-1.050,-0.565
3519,-1.050,-0.550
3520,-1.050,-0.560
3521,-1.045,-0.545
3522,-1.030,-0.535
3523,-1.030,-0.540
3524,-1.020,-0.525
3525,-1.020,-0.525
3526,-1.020,-0.545
3527,-1.030,-0.545
3528,-1.040,-0.545
3529,-1.030,-0.560
3530,-1.040,-0.550
3531,-1.045,-0.555
3532,-1.040,-0.555
3533,-1.040,-0.545
3534,-1.030,-0.520
3535,-1.025,-0.510
3536,-1.010,-0.500
3537,-1.000,-0.515
3538,-1.000,-0.510
3539,-1.005,-0.515
3540,-1.015,-0.530
3541,-1.025,-0.540
3542,-1.030,-0.545
3543,-1.035,-0.540
3544,-1.030,-0.530
3545,-1.025,-0.520
3546,-1.015,-0.510
3547,-1.010,-0.500
3548,-1.000,-0.490
3549,-0.990,-0.500
3550,-0.995,-0.505
3551,-0.995,-0.500
3552,-1.005,-0.515
3553,-1.010,-0.530
3554,-1.010,-0.525
3555,-1.015,-0.535
3556,-1.025,-0.540
3557,-1.015,-0.530
3558,-1.005,-0.520
3559,-1.010,-0.505
3560,-1.000,-0.500
3561,-1.005,-0.490
3562,-1.000,-0.495
3563,-1.015,-0.510
3564,-1.035,-0.510
3565,-1.025,-0.525
3566,-1.035,-0.545
3567,-1.030,-0.550
3568,-1.010,-0.530
3569,-1.010,-0.530
3570,-1.020,-0.505
3571,-1.015,-0.510
3572,-0.995,-0.505
3573,-0.980,-0.510
3574,-0.980,-0.510
3575,-0.980,-0.530
3576,-0.995,-0.540
3577,-1.000,-0.535
3578,-1.000,-0.545
3579,-1.005,-0.540
3580,-1.005,-0.525
3581,-1.000,-0.520
3582,-0.985,-0.520
3583,-0.980,-0.525
3584,-0.975,-0.505
3585,-0.975,-0.530
3586,-0.970,-0.515
3587,-0.980,-0.530
3588,-0.990,-0.545
3589,-1.000,-0.540
3590,-0.995,-0.545
3591,-1.000,-0.545
3592,-1.000,-0.535
3593,-0.990,-0.525
3594,-0.985,-0.520
3595,-0.970,-0.520
3596,-0.955,-0.510
3597,-0.970,-0.520
3598,-0.970,-0.515
3599,-0.970,-0.525
