0,0.350,0.105
1,0.350,0.105
2,0.350,0.105
3,0.350,0.105
4,0.350,0.105
5,0.350,0.105
6,0.350,0.105
7,0.350,0.105
8,0.350,0.105
9,0.020,0.115
10,-0.210,0.090
11,-0.330,0.075
12,-0.370,0.095
13,-0.335,0.115
14,-0.285,0.090
15,-0.230,0.085
16,-0.215,0.090
17,-0.200,0.085
18,-0.190,0.070
19,-0.200,0.075
20,-0.200,0.090
21,-0.210,0.095
22,-0.230,0.070
23,-0.250,0.030
24,-0.255,0.040
25,-0.245,0.070
26,-0.240,0.065
27,-0.215,0.040
28,-0.235,0.040
29,-0.230,0.045
30,-0.230,0.040
31,-0.205,0.015
32,-0.180,0.040
33,-0.165,0.050
34,-0.195,0.060
35,-0.210,0.040
36,-0.215,0.030
37,-0.195,0.060
38,-0.170,0.085
39,-0.155,0.070
40,-0.175,0.045
41,-0.195,0.050
42,-0.210,0.065
43,-0.200,0.090
44,-0.200,0.080
45,-0.195,0.075
46,-0.185,0.075
47,-0.185,0.050
48,-0.180,0.045
49,-0.175,0.065
50,-0.175,0.070
51,-0.165,0.085
52,-0.140,0.075
53,-0.120,0.045
54,-0.115,0.060
55,-0.130,0.075
56,-0.155,0.060
57,-0.190,0.035
58,-0.190,0.040
59,-0.185,0.055
60,-0.180,0.070
61,-0.160,0.060
62,-0.140,0.070
63,-0.130,0.070
64,-0.110,0.070
65,-0.120,0.055
66,-0.130,0.040
67,-0.130,0.050
68,-0.125,0.080
69,-0.095,0.085
70,-0.095,0.060
71,-0.090,0.050
72,-0.080,0.065
73,-0.075,0.080
74,-0.070,0.070
75,-0.075,0.050
76,-0.065,0.065
77,-0.055,0.060
78,-0.060,0.075
79,-0.055,0.055
80,-0.040,0.060
81,-0.030,0.080
82,-0.020,0.065
83,-0.015,0.050
84,-0.015,0.040
85,-0.010,0.065
86,0.015,0.095
87,0.035,0.075
88,0.025,0.050
89,0.015,0.065
90,0.015,0.070
91,0.025,0.060
92,0.025,0.055
93,0.040,0.050
94,0.040,0.070
95,0.030,0.065
96,0.015,0.065
97,0.020,0.070
98,0.035,0.085
99,0.045,0.090
100,0.050,0.060
101,0.025,0.035
102,0.020,0.055
103,0.020,0.085
104,0.010,0.095
105,0.010,0.080
106,0.000,0.080
107,-0.005,0.075
108,-0.025,0.075
109,-0.020,0.070
110,-0.030,0.070
111,-0.030,0.085
112,-0.035,0.075
113,-0.045,0.060
114,-0.055,0.055
115,-0.060,0.085
116,-0.065,0.105
117,-0.075,0.085
118,-0.080,0.060
119,-0.075,0.045
120,-0.075,0.060
121,-0.075,0.085
122,-0.070,0.090
123,-0.075,0.075
124,-0.080,0.085
125,-0.090,0.090
126,-0.100,0.095
127,-0.095,0.080
128,-0.095,0.075
129,-0.085,0.080
130,-0.095,0.095
131,-0.100,0.080
132,-0.100,0.085
133,-0.115,0.085
134,-0.115,0.095
135,-0.130,0.090
136,-0.140,0.060
137,-0.150,0.050
138,-0.160,0.085
139,-0.145,0.100
140,-0.155,0.095
141,-0.160,0.080
142,-0.170,0.090
143,-0.185,0.085
144,-0.175,0.085
145,-0.170,0.080
146,-0.165,0.075
147,-0.170,0.090
148,-0.170,0.105
149,-0.165,0.070
150,-0.180,0.075
151,-0.180,0.080
152,-0.200,0.105
153,-0.200,0.095
154,-0.215,0.075
155,-0.205,0.045
156,-0.210,0.065
157,-0.205,0.100
158,-0.210,0.090
159,-0.220,0.075
160,-0.225,0.080
161,-0.225,0.080
162,-0.240,0.075
163,-0.225,0.060
164,-0.210,0.055
165,-0.205,0.085
166,-0.195,0.095
167,-0.190,0.070
168,-0.200,0.065
169,-0.190,0.090
170,-0.190,0.105
171,-0.185,0.115
172,-0.170,0.075
173,-0.170,0.070
174,-0.175,0.090
175,-0.165,0.110
176,-0.165,0.105
177,-0.185,0.090
178,-0.185,0.085
179,-0.205,0.090
180,-0.205,0.085
181,-0.210,0.080
182,-0.195,0.060
183,-0.195,0.090
184,-0.190,0.090
185,-0.195,0.060
186,-0.195,0.065
187,-0.195,0.065
188,-0.185,0.090
189,-0.175,0.085
190,-0.175,0.045
191,-0.200,0.025
192,-0.225,0.040
193,-0.250,0.070
194,-0.240,0.055
195,-0.240,0.030
196,-0.240,0.020
197,-0.250,0.020
198,-0.260,0.030
199,-0.270,0.015
200,-0.280,-0.015
201,-0.305,0.000
202,-0.335,0.015
203,-0.350,0.000
204,-0.340,-0.025
205,-0.285,-0.030
206,-0.205,-0.020
207,-0.135,-0.020
208,-0.095,-0.055
209,-0.045,-0.080
210,0.010,-0.070
211,0.075,-0.040
212,0.140,-0.055
213,0.175,-0.065
214,0.135,-0.095
215,0.045,-0.080
216,-0.155,-0.065
217,-0.425,-0.070
218,-0.710,-0.085
219,-0.915,-0.065
220,-1.090,-0.050
221,-1.255,-0.060
222,-1.395,-0.080
223,-1.465,-0.080
224,-1.505,-0.030
225,-1.490,-0.020
226,-1.450,-0.025
227,-1.390,-0.050
228,-1.340,-0.005
229,-1.270,0.030
230,-1.155,0.045
231,-1.025,0.045
232,-0.950,0.025
233,-0.930,0.030
234,-0.930,0.050
235,-0.910,0.040
236,-0.885,0.030
237,-0.865,0.015
238,-0.840,0.040
239,-0.800,0.040
240,-0.755,0.025
241,-0.715,0.020
242,-0.660,0.035
243,-0.630,0.055
244,-0.580,0.040
245,-0.540,0.010
246,-0.510,0.015
247,-0.465,0.040
248,-0.435,0.070
249,-0.395,0.070
250,-0.365,0.045
251,-0.315,0.055
252,-0.265,0.080
253,-0.200,0.090
254,-0.155,0.090
255,-0.090,0.080
256,-0.040,0.090
257,-0.015,0.100
258,-0.010,0.105
259,0.005,0.100
260,0.030,0.100
261,0.055,0.130
262,0.080,0.130
263,0.085,0.095
264,0.090,0.090
265,0.110,0.090
266,0.110,0.135
267,0.130,0.140
268,0.150,0.115
269,0.155,0.100
270,0.150,0.115
271,0.180,0.150
272,0.185,0.135
273,0.205,0.115
274,0.220,0.110
275,0.235,0.125
276,0.235,0.150
277,0.255,0.135
278,0.270,0.125
279,0.290,0.150
280,0.290,0.140
281,0.300,0.125
282,0.300,0.105
283,0.305,0.115
284,0.325,0.155
285,0.315,0.165
286,0.310,0.130
287,0.315,0.120
288,0.315,0.145
289,0.345,0.160
290,0.360,0.155
291,0.370,0.125
292,0.375,0.125
293,0.375,0.130
294,0.365,0.155
295,0.375,0.140
296,0.385,0.130
297,0.410,0.145
298,0.405,0.140
299,0.400,0.125
300,0.400,0.100
301,0.405,0.130
302,0.400,0.160
303,0.410,0.150
304,0.395,0.130
305,0.400,0.105
306,0.385,0.140
307,0.390,0.150
308,0.395,0.140
309,0.385,0.120
310,0.380,0.135
311,0.355,0.125
312,0.355,0.130
313,0.355,0.110
314,0.350,0.125
315,0.325,0.140
316,0.300,0.120
317,0.280,0.090
318,0.250,0.100
319,0.250,0.110
320,0.250,0.135
321,0.250,0.130
322,0.235,0.100
323,0.210,0.095
324,0.175,0.115
325,0.165,0.130
326,0.160,0.115
327,0.145,0.095
328,0.140,0.105
329,0.145,0.120
330,0.130,0.110
331,0.100,0.100
332,0.080,0.110
333,0.040,0.125
334,0.015,0.120
335,-0.010,0.085
336,-0.025,0.080
337,-0.025,0.105
338,-0.030,0.125
339,-0.040,0.100
340,-0.045,0.085
341,-0.070,0.100
342,-0.105,0.105
343,-0.080,0.100
344,-0.075,0.090
345,-0.085,0.090
346,-0.090,0.115
347,-0.110,0.100
348,-0.130,0.085
349,-0.120,0.105
350,-0.115,0.120
351,-0.125,0.115
352,-0.150,0.090
353,-0.170,0.075
354,-0.160,0.095
355,-0.160,0.105
356,-0.150,0.100
357,-0.155,0.090
358,-0.160,0.095
359,-0.170,0.090
360,-0.185,0.080
361,-0.180,0.070
362,-0.180,0.100
363,-0.190,0.100
364,-0.180,0.110
365,-0.170,0.060
366,-0.160,0.075
367,-0.140,0.105
368,-0.140,0.115
369,-0.145,0.080
370,-0.170,0.070
371,-0.180,0.075
372,-0.175,0.100
373,-0.160,0.095
374,-0.155,0.090
375,-0.155,0.100
376,-0.165,0.120
377,-0.150,0.095
378,-0.155,0.065
379,-0.150,0.090
380,-0.145,0.115
381,-0.145,0.105
382,-0.165,0.090
383,-0.195,0.075
384,-0.205,0.100
385,-0.190,0.105
386,-0.180,0.090
387,-0.165,0.075
388,-0.170,0.100
389,-0.160,0.090
390,-0.170,0.080
391,-0.165,0.085
392,-0.170,0.100
393,-0.170,0.110
394,-0.170,0.075
395,-0.170,0.035
396,-0.185,0.070
397,-0.190,0.095
398,-0.180,0.095
399,-0.180,0.070
400,-0.180,0.090
401,-0.175,0.080
402,-0.200,0.070
403,-0.210,0.055
404,-0.200,0.075
405,-0.200,0.105
406,-0.210,0.080
407,-0.215,0.055
408,-0.210,0.060
409,-0.200,0.090
410,-0.175,0.075
411,-0.160,0.060
412,-0.145,0.050
413,-0.145,0.070
414,-0.135,0.085
415,-0.140,0.075
416,-0.135,0.060
417,-0.130,0.080
418,-0.120,0.095
419,-0.115,0.070
420,-0.110,0.060
421,-0.105,0.075
422,-0.100,0.105
423,-0.095,0.105
424,-0.110,0.065
425,-0.140,0.070
426,-0.175,0.095
427,-0.180,0.105
428,-0.180,0.090
429,-0.180,0.075
430,-0.165,0.095
431,-0.175,0.090
432,-0.175,0.070
433,-0.175,0.070
434,-0.165,0.090
435,-0.165,0.110
436,-0.165,0.080
437,-0.175,0.030
438,-0.165,0.060
439,-0.160,0.085
440,-0.155,0.090
441,-0.150,0.070
442,-0.155,0.075
443,-0.160,0.080
444,-0.160,0.080
445,-0.155,0.060
446,-0.145,0.075
447,-0.150,0.095
448,-0.150,0.090
449,-0.185,0.075
450,-0.200,0.060
451,-0.200,0.090
452,-0.195,0.105
453,-0.190,0.085
454,-0.190,0.065
455,-0.195,0.075
456,-0.200,0.100
457,-0.195,0.095
458,-0.185,0.080
459,-0.175,0.080
460,-0.175,0.095
461,-0.155,0.090
462,-0.170,0.060
463,-0.170,0.070
464,-0.165,0.090
465,-0.150,0.105
466,-0.160,0.075
467,-0.165,0.050
468,-0.175,0.075
469,-0.170,0.105
470,-0.170,0.105
471,-0.185,0.085
472,-0.215,0.070
473,-0.225,0.085
474,-0.190,0.090
475,-0.125,0.075
476,-0.040,0.080
477,0.050,0.100
478,0.125,0.105
479,0.215,0.065
480,0.320,0.055
481,0.415,0.100
482,0.500,0.110
483,0.605,0.105
484,0.725,0.090
485,0.845,0.095
486,0.940,0.110
487,1.060,0.125
488,1.110,0.120
489,1.100,0.100
490,1.005,0.115
491,0.860,0.120
492,0.615,0.115
493,0.240,0.120
494,-0.110,0.150
495,-0.335,0.175
496,-0.460,0.155
497,-0.515,0.135
498,-0.540,0.135
499,-0.510,0.160
500,-0.440,0.170
501,-0.385,0.140
502,-0.360,0.130
503,-0.350,0.125
504,-0.335,0.145
505,-0.320,0.140
506,-0.295,0.130
507,-0.300,0.115
508,-0.300,0.135
509,-0.325,0.120
510,-0.335,0.100
511,-0.335,0.090
512,-0.335,0.115
513,-0.325,0.130
514,-0.310,0.115
515,-0.300,0.080
516,-0.280,0.085
517,-0.260,0.110
518,-0.240,0.120
519,-0.245,0.095
520,-0.260,0.080
521,-0.270,0.085
522,-0.280,0.100
523,-0.280,0.110
524,-0.275,0.085
525,-0.270,0.090
526,-0.275,0.085
527,-0.280,0.095
528,-0.255,0.090
529,-0.250,0.080
530,-0.240,0.075
531,-0.235,0.105
532,-0.235,0.090
533,-0.235,0.070
534,-0.240,0.055
535,-0.235,0.075
536,-0.235,0.105
537,-0.230,0.095
538,-0.240,0.070
539,-0.225,0.055
540,-0.230,0.085
541,-0.225,0.105
542,-0.210,0.110
543,-0.195,0.085
544,-0.215,0.085
545,-0.220,0.095
546,-0.240,0.090
547,-0.230,0.080
548,-0.230,0.080
549,-0.215,0.095
550,-0.210,0.100
551,-0.210,0.080
552,-0.220,0.065
553,-0.205,0.075
554,-0.180,0.090
555,-0.185,0.100
556,-0.190,0.085
557,-0.190,0.050
558,-0.195,0.065
559,-0.160,0.090
560,-0.140,0.120
561,-0.130,0.090
562,-0.125,0.070
563,-0.130,0.070
564,-0.140,0.095
565,-0.130,0.095
566,-0.120,0.090
567,-0.125,0.080
568,-0.125,0.080
569,-0.145,0.095
570,-0.125,0.100
571,-0.120,0.085
572,-0.125,0.085
573,-0.115,0.095
574,-0.120,0.100
575,-0.140,0.090
576,-0.150,0.060
577,-0.145,0.065
578,-0.135,0.095
579,-0.110,0.105
580,-0.105,0.085
581,-0.100,0.055
582,-0.085,0.060
583,-0.095,0.085
584,-0.080,0.095
585,-0.065,0.090
586,-0.070,0.060
587,-0.070,0.065
588,-0.075,0.105
589,-0.070,0.095
590,-0.060,0.085
591,-0.055,0.080
592,-0.050,0.090
593,-0.075,0.100
594,-0.065,0.100
595,-0.065,0.080
596,-0.070,0.100
597,-0.080,0.110
598,-0.080,0.110
599,-0.080,0.070
600,-0.080,0.065
601,-0.080,0.100
602,-0.080,0.110
603,-0.075,0.105
604,-0.090,0.085
605,-0.090,0.070
606,-0.085,0.100
607,-0.090,0.120
608,-0.075,0.110
609,-0.075,0.070
610,-0.070,0.080
611,-0.075,0.100
612,-0.090,0.105
613,-0.075,0.085
614,-0.065,0.090
615,-0.070,0.090
616,-0.070,0.100
617,-0.085,0.100
618,-0.090,0.095
619,-0.090,0.065
620,-0.080,0.090
621,-0.100,0.100
622,-0.105,0.105
623,-0.115,0.075
624,-0.120,0.060
625,-0.115,0.085
626,-0.100,0.120
627,-0.105,0.115
628,-0.120,0.075
629,-0.140,0.065
630,-0.140,0.100
631,-0.115,0.115
632,-0.070,0.105
633,-0.075,0.090
634,-0.090,0.100
635,-0.105,0.100
636,-0.115,0.110
637,-0.110,0.105
638,-0.110,0.110
639,-0.130,0.115
640,-0.135,0.115
641,-0.150,0.090
642,-0.130,0.080
643,-0.125,0.090
644,-0.125,0.120
645,-0.140,0.110
646,-0.155,0.085
647,-0.155,0.075
648,-0.155,0.095
649,-0.155,0.095
650,-0.145,0.100
651,-0.130,0.090
652,-0.130,0.080
653,-0.130,0.090
654,-0.120,0.105
655,-0.110,0.090
656,-0.090,0.085
657,-0.070,0.100
658,-0.060,0.105
659,-0.080,0.085
660,-0.075,0.075
661,-0.050,0.085
662,-0.015,0.120
663,0.005,0.115
664,0.020,0.100
665,0.020,0.080
666,0.040,0.090
667,0.060,0.095
668,0.080,0.100
669,0.105,0.085
670,0.110,0.070
671,0.095,0.065
672,0.120,0.065
673,0.200,0.065
674,0.265,0.045
675,0.265,0.040
676,0.220,0.045
677,0.200,0.015
678,0.190,0.005
679,0.150,0.010
680,0.035,0.040
681,-0.225,0.030
682,-0.625,0.020
683,-1.090,-0.005
684,-1.475,0.010
685,-1.745,0.025
686,-1.895,0.025
687,-1.955,0.015
688,-1.995,0.010
689,-2.010,0.020
690,-2.000,0.025
691,-1.965,0.030
692,-1.905,0.040
693,-1.845,0.050
694,-1.750,0.065
695,-1.605,0.050
696,-1.475,0.050
697,-1.350,0.075
698,-1.275,0.120
699,-1.235,0.105
700,-1.180,0.090
701,-1.105,0.085
702,-1.035,0.105
703,-0.940,0.110
704,-0.830,0.095
705,-0.770,0.105
706,-0.715,0.105
707,-0.665,0.110
708,-0.605,0.100
709,-0.520,0.100
710,-0.465,0.110
711,-0.420,0.115
712,-0.400,0.100
713,-0.390,0.090
714,-0.375,0.090
715,-0.340,0.115
716,-0.305,0.130
717,-0.270,0.115
718,-0.190,0.115
719,-0.125,0.120
720,-0.060,0.120
721,-0.005,0.125
722,0.050,0.125
723,0.110,0.145
724,0.150,0.155
725,0.185,0.145
726,0.210,0.135
727,0.230,0.155
728,0.260,0.170
729,0.285,0.165
730,0.325,0.145
731,0.330,0.140
732,0.325,0.150
733,0.350,0.175
734,0.390,0.175
735,0.430,0.170
736,0.470,0.170
737,0.465,0.170
738,0.485,0.145
739,0.505,0.150
740,0.520,0.165
741,0.540,0.175
742,0.560,0.150
743,0.585,0.140
744,0.600,0.160
745,0.620,0.160
746,0.645,0.160
747,0.655,0.150
748,0.675,0.165
749,0.680,0.170
750,0.695,0.160
751,0.715,0.175
752,0.755,0.190
753,0.785,0.195
754,0.805,0.175
755,0.795,0.155
756,0.805,0.170
757,0.820,0.195
758,0.840,0.195
759,0.865,0.180
760,0.855,0.170
761,0.850,0.170
762,0.835,0.170
763,0.830,0.165
764,0.835,0.190
765,0.825,0.190
766,0.800,0.180
767,0.790,0.160
768,0.770,0.170
769,0.780,0.185
770,0.770,0.185
771,0.755,0.160
772,0.715,0.165
773,0.680,0.165
774,0.665,0.180
775,0.640,0.185
776,0.615,0.190
777,0.605,0.190
778,0.585,0.180
779,0.560,0.155
780,0.530,0.165
781,0.495,0.195
782,0.460,0.200
783,0.435,0.190
784,0.400,0.180
785,0.360,0.165
786,0.325,0.175
787,0.290,0.170
788,0.275,0.170
789,0.245,0.185
790,0.205,0.180
791,0.185,0.160
792,0.185,0.170
793,0.175,0.180
794,0.165,0.185
795,0.155,0.175
796,0.140,0.165
797,0.130,0.160
798,0.110,0.175
799,0.095,0.160
800,0.075,0.175
801,0.055,0.185
802,0.035,0.155
803,0.015,0.125
804,-0.005,0.135
805,0.010,0.165
806,0.015,0.175
807,0.000,0.155
808,-0.020,0.155
809,-0.040,0.155
810,-0.055,0.145
811,-0.035,0.125
812,-0.005,0.140
813,0.005,0.165
814,-0.005,0.150
815,-0.025,0.130
816,-0.020,0.145
817,-0.010,0.150
818,-0.015,0.150
819,-0.020,0.135
820,-0.030,0.130
821,-0.045,0.145
822,-0.060,0.140
823,-0.065,0.125
824,-0.060,0.140
825,-0.050,0.150
826,-0.060,0.125
827,-0.085,0.100
828,-0.090,0.125
829,-0.110,0.145
830,-0.105,0.145
831,-0.095,0.140
832,-0.085,0.140
833,-0.075,0.130
834,-0.080,0.120
835,-0.095,0.120
836,-0.095,0.150
837,-0.090,0.160
838,-0.095,0.135
839,-0.115,0.120
840,-0.115,0.150
841,-0.120,0.140
842,-0.110,0.130
843,-0.095,0.125
844,-0.105,0.145
845,-0.110,0.135
846,-0.125,0.130
847,-0.115,0.130
848,-0.090,0.160
849,-0.095,0.155
850,-0.110,0.135
851,-0.125,0.115
852,-0.135,0.150
853,-0.130,0.150
854,-0.125,0.145
855,-0.125,0.135
856,-0.135,0.155
857,-0.145,0.130
858,-0.155,0.115
859,-0.145,0.120
860,-0.130,0.150
861,-0.135,0.160
862,-0.140,0.135
863,-0.155,0.125
864,-0.155,0.140
865,-0.135,0.140
866,-0.125,0.140
867,-0.130,0.130
868,-0.135,0.145
869,-0.145,0.140
870,-0.165,0.135
871,-0.190,0.140
872,-0.175,0.160
873,-0.150,0.155
874,-0.135,0.135
875,-0.125,0.115
876,-0.145,0.145
877,-0.110,0.160
878,-0.090,0.160
879,-0.070,0.145
880,-0.075,0.155
881,-0.090,0.145
882,-0.135,0.135
883,-0.150,0.130
884,-0.155,0.150
885,-0.155,0.170
886,-0.120,0.175
887,-0.100,0.140
888,-0.080,0.140
889,-0.065,0.165
890,-0.075,0.170
891,-0.095,0.155
892,-0.100,0.145
893,-0.095,0.160
894,-0.085,0.175
895,-0.080,0.180
896,-0.080,0.180
897,-0.080,0.190
898,-0.095,0.180
899,-0.120,0.170
900,-0.125,0.145
901,-0.125,0.165
902,-0.125,0.190
903,-0.130,0.185
904,-0.135,0.155
905,-0.130,0.155
906,-0.130,0.165
907,-0.120,0.190
908,-0.115,0.185
909,-0.105,0.155
910,-0.120,0.150
911,-0.145,0.145
912,-0.135,0.170
913,-0.110,0.175
914,-0.110,0.180
915,-0.110,0.190
916,-0.125,0.185
917,-0.105,0.185
918,-0.100,0.160
919,-0.080,0.175
920,-0.050,0.200
921,-0.030,0.205
922,-0.070,0.185
923,-0.120,0.165
924,-0.185,0.185
925,-0.215,0.185
926,-0.220,0.180
927,-0.185,0.150
928,-0.160,0.155
929,-0.160,0.165
930,-0.145,0.170
931,-0.150,0.160
932,-0.130,0.170
933,-0.140,0.180
934,-0.150,0.170
935,-0.170,0.150
936,-0.190,0.145
937,-0.185,0.165
938,-0.170,0.185
939,-0.175,0.180
940,-0.165,0.155
941,-0.160,0.160
942,-0.180,0.175
943,-0.175,0.180
944,-0.185,0.170
945,-0.185,0.160
946,-0.190,0.165
947,-0.205,0.160
948,-0.210,0.150
949,-0.215,0.150
950,-0.215,0.165
951,-0.180,0.170
952,-0.125,0.160
953,-0.075,0.140
954,0.000,0.130
955,0.085,0.150
956,0.190,0.175
957,0.290,0.170
958,0.360,0.145
959,0.440,0.140
960,0.535,0.160
961,0.680,0.165
962,0.800,0.160
963,0.905,0.145
964,0.995,0.165
965,1.025,0.170
966,1.005,0.165
967,0.920,0.155
968,0.790,0.175
969,0.570,0.205
970,0.225,0.195
971,-0.120,0.185
972,-0.335,0.180
973,-0.430,0.190
974,-0.505,0.215
975,-0.520,0.205
976,-0.495,0.190
977,-0.440,0.190
978,-0.400,0.190
979,-0.365,0.175
980,-0.370,0.160
981,-0.385,0.155
982,-0.360,0.180
983,-0.370,0.175
984,-0.380,0.135
985,-0.390,0.135
986,-0.415,0.145
987,-0.405,0.155
988,-0.405,0.110
989,-0.405,0.090
990,-0.415,0.105
991,-0.410,0.130
992,-0.395,0.145
993,-0.385,0.110
994,-0.385,0.095
995,-0.385,0.105
996,-0.365,0.120
997,-0.355,0.090
998,-0.345,0.090
999,-0.335,0.115
1000,-0.355,0.090
1001,-0.390,0.070
1002,-0.400,0.075
1003,-0.390,0.115
1004,-0.360,0.110
1005,-0.330,0.075
1006,-0.340,0.050
1007,-0.380,0.070
1008,-0.395,0.110
1009,-0.405,0.105
1010,-0.390,0.075
1011,-0.395,0.080
1012,-0.390,0.090
1013,-0.400,0.080
1014,-0.400,0.070
1015,-0.395,0.070
1016,-0.390,0.090
1017,-0.385,0.090
1018,-0.390,0.065
1019,-0.385,0.060
1020,-0.385,0.075
1021,-0.380,0.100
1022,-0.370,0.070
1023,-0.340,0.045
1024,-0.335,0.065
1025,-0.335,0.095
1026,-0.330,0.095
1027,-0.325,0.085
1028,-0.350,0.095
1029,-0.365,0.100
1030,-0.355,0.085
1031,-0.345,0.055
1032,-0.340,0.085
1033,-0.340,0.110
1034,-0.360,0.100
1035,-0.350,0.090
1036,-0.345,0.090
1037,-0.350,0.095
1038,-0.355,0.080
1039,-0.345,0.080
1040,-0.340,0.080
1041,-0.335,0.090
1042,-0.345,0.075
1043,-0.365,0.055
1044,-0.350,0.075
1045,-0.350,0.095
1046,-0.335,0.075
1047,-0.330,0.055
1048,-0.310,0.045
1049,-0.290,0.075
1050,-0.285,0.090
1051,-0.265,0.075
1052,-0.275,0.080
1053,-0.280,0.080
1054,-0.300,0.080
1055,-0.305,0.065
1056,-0.305,0.070
1057,-0.295,0.100
1058,-0.285,0.100
1059,-0.305,0.085
1060,-0.320,0.060
1061,-0.320,0.085
1062,-0.305,0.100
1063,-0.275,0.100
1064,-0.265,0.070
1065,-0.275,0.080
1066,-0.285,0.095
1067,-0.280,0.090
1068,-0.270,0.095
1069,-0.260,0.115
1070,-0.250,0.135
1071,-0.255,0.095
1072,-0.255,0.070
1073,-0.265,0.090
1074,-0.265,0.125
1075,-0.250,0.125
1076,-0.260,0.105
1077,-0.245,0.110
1078,-0.260,0.115
1079,-0.285,0.095
1080,-0.290,0.080
1081,-0.290,0.105
1082,-0.280,0.130
1083,-0.285,0.105
1084,-0.285,0.095
1085,-0.280,0.095
1086,-0.310,0.120
1087,-0.310,0.115
1088,-0.300,0.090
1089,-0.285,0.095
1090,-0.275,0.100
1091,-0.295,0.110
1092,-0.305,0.100
1093,-0.300,0.095
1094,-0.300,0.115
1095,-0.320,0.115
1096,-0.300,0.085
1097,-0.305,0.060
1098,-0.315,0.095
1099,-0.305,0.120
1100,-0.295,0.110
1101,-0.295,0.075
1102,-0.305,0.095
1103,-0.335,0.110
1104,-0.335,0.105
1105,-0.340,0.080
1106,-0.335,0.095
1107,-0.335,0.100
1108,-0.345,0.100
1109,-0.360,0.075
1110,-0.365,0.085
1111,-0.355,0.120
1112,-0.335,0.105
1113,-0.330,0.075
1114,-0.320,0.075
1115,-0.310,0.105
1116,-0.295,0.095
1117,-0.275,0.090
1118,-0.250,0.115
1119,-0.230,0.105
1120,-0.210,0.075
1121,-0.200,0.070
1122,-0.175,0.095
1123,-0.150,0.115
1124,-0.140,0.090
1125,-0.145,0.080
1126,-0.155,0.075
1127,-0.155,0.085
1128,-0.130,0.060
1129,-0.130,0.030
1130,-0.115,0.030
1131,-0.105,0.040
1132,-0.060,0.025
1133,-0.040,-0.010
1134,-0.045,0.000
1135,-0.085,0.020
1136,-0.160,0.015
1137,-0.260,-0.040
1138,-0.430,-0.050
1139,-0.690,-0.030
1140,-1.060,-0.005
1141,-1.425,-0.015
1142,-1.730,-0.035
1143,-1.930,-0.020
1144,-2.035,0.015
1145,-2.065,0.005
1146,-2.060,-0.020
1147,-2.080,0.005
1148,-2.055,0.035
1149,-1.995,0.040
1150,-1.900,0.025
1151,-1.805,0.035
1152,-1.705,0.085
1153,-1.635,0.110
1154,-1.540,0.105
1155,-1.440,0.090
1156,-1.325,0.110
1157,-1.235,0.125
1158,-1.145,0.140
1159,-1.065,0.130
1160,-0.995,0.140
1161,-0.940,0.145
1162,-0.915,0.135
1163,-0.870,0.100
1164,-0.830,0.095
1165,-0.760,0.130
1166,-0.690,0.135
1167,-0.655,0.115
1168,-0.625,0.080
1169,-0.610,0.100
1170,-0.585,0.120
1171,-0.565,0.115
1172,-0.530,0.085
1173,-0.490,0.090
1174,-0.470,0.110
1175,-0.420,0.105
1176,-0.350,0.090
1177,-0.275,0.100
1178,-0.205,0.120
1179,-0.155,0.135
1180,-0.120,0.110
1181,-0.090,0.100
1182,-0.030,0.115
1183,0.020,0.150
1184,0.060,0.145
1185,0.080,0.125
1186,0.095,0.120
1187,0.130,0.150
1188,0.150,0.140
1189,0.170,0.135
1190,0.180,0.135
1191,0.185,0.155
1192,0.210,0.150
1193,0.225,0.125
1194,0.245,0.130
1195,0.270,0.155
1196,0.300,0.155
1197,0.315,0.130
1198,0.310,0.115
1199,0.315,0.125
1200,0.350,0.165
1201,0.370,0.160
1202,0.365,0.135
1203,0.370,0.145
1204,0.385,0.150
1205,0.400,0.160
1206,0.425,0.155
1207,0.470,0.145
1208,0.490,0.165
1209,0.505,0.175
1210,0.505,0.175
1211,0.530,0.145
1212,0.530,0.165
1213,0.535,0.195
1214,0.540,0.185
1215,0.545,0.155
1216,0.545,0.140
1217,0.570,0.145
1218,0.580,0.175
1219,0.570,0.175
1220,0.575,0.150
1221,0.560,0.160
1222,0.550,0.175
1223,0.545,0.180
1224,0.555,0.165
1225,0.550,0.155
1226,0.560,0.155
1227,0.550,0.180
1228,0.530,0.155
1229,0.500,0.140
1230,0.480,0.165
1231,0.465,0.190
1232,0.465,0.165
1233,0.440,0.145
1234,0.405,0.135
1235,0.395,0.155
1236,0.375,0.165
1237,0.360,0.165
1238,0.355,0.140
1239,0.345,0.150
1240,0.290,0.160
1241,0.250,0.145
1242,0.220,0.130
1243,0.195,0.140
1244,0.175,0.160
1245,0.150,0.155
1246,0.120,0.125
1247,0.095,0.125
1248,0.065,0.135
1249,0.055,0.165
1250,0.035,0.155
1251,0.020,0.125
1252,-0.005,0.115
1253,-0.025,0.135
1254,-0.040,0.150
1255,-0.065,0.150
1256,-0.070,0.130
1257,-0.080,0.140
1258,-0.100,0.150
1259,-0.115,0.145
1260,-0.135,0.125
1261,-0.130,0.135
1262,-0.140,0.150
1263,-0.155,0.145
1264,-0.160,0.115
1265,-0.170,0.115
1266,-0.170,0.135
1267,-0.175,0.155
1268,-0.180,0.145
1269,-0.205,0.115
1270,-0.210,0.115
1271,-0.225,0.140
1272,-0.215,0.145
1273,-0.200,0.140
1274,-0.185,0.135
1275,-0.200,0.125
1276,-0.220,0.140
1277,-0.230,0.145
1278,-0.230,0.120
1279,-0.210,0.120
1280,-0.195,0.145
1281,-0.205,0.135
1282,-0.215,0.120
1283,-0.225,0.110
1284,-0.210,0.130
1285,-0.200,0.155
1286,-0.195,0.155
1287,-0.200,0.110
1288,-0.220,0.115
1289,-0.230,0.130
1290,-0.235,0.140
1291,-0.230,0.130
1292,-0.230,0.110
1293,-0.225,0.120
1294,-0.240,0.120
1295,-0.255,0.140
1296,-0.250,0.115
1297,-0.230,0.125
1298,-0.225,0.125
1299,-0.240,0.130
1300,-0.240,0.115
1301,-0.260,0.120
1302,-0.250,0.125
1303,-0.245,0.155
1304,-0.230,0.150
1305,-0.215,0.115
1306,-0.220,0.105
1307,-0.225,0.125
1308,-0.225,0.140
1309,-0.230,0.145
1310,-0.215,0.125
1311,-0.215,0.125
1312,-0.245,0.140
1313,-0.250,0.135
1314,-0.245,0.120
1315,-0.240,0.135
1316,-0.240,0.140
1317,-0.230,0.135
1318,-0.230,0.105
1319,-0.245,0.115
1320,-0.240,0.140
1321,-0.245,0.155
1322,-0.240,0.135
1323,-0.245,0.120
1324,-0.245,0.130
1325,-0.250,0.135
1326,-0.250,0.125
1327,-0.225,0.120
1328,-0.240,0.115
1329,-0.240,0.135
1330,-0.235,0.115
1331,-0.240,0.100
1332,-0.240,0.105
1333,-0.240,0.135
1334,-0.240,0.135
1335,-0.255,0.095
1336,-0.255,0.080
1337,-0.260,0.105
1338,-0.225,0.125
1339,-0.225,0.110
1340,-0.220,0.090
1341,-0.215,0.090
1342,-0.225,0.110
1343,-0.235,0.095
1344,-0.250,0.090
1345,-0.245,0.115
1346,-0.245,0.130
1347,-0.250,0.115
1348,-0.255,0.080
1349,-0.240,0.090
1350,-0.215,0.125
1351,-0.210,0.125
1352,-0.215,0.105
1353,-0.225,0.090
1354,-0.230,0.105
1355,-0.230,0.110
1356,-0.225,0.100
1357,-0.225,0.105
1358,-0.230,0.120
1359,-0.225,0.110
1360,-0.220,0.085
1361,-0.220,0.090
1362,-0.210,0.105
1363,-0.190,0.140
1364,-0.175,0.125
1365,-0.165,0.105
1366,-0.170,0.115
1367,-0.175,0.120
1368,-0.170,0.115
1369,-0.155,0.130
1370,-0.145,0.130
1371,-0.140,0.140
1372,-0.135,0.110
1373,-0.135,0.100
1374,-0.135,0.120
1375,-0.140,0.130
1376,-0.145,0.110
1377,-0.155,0.095
1378,-0.160,0.095
1379,-0.180,0.110
1380,-0.185,0.105
1381,-0.185,0.095
1382,-0.180,0.110
1383,-0.195,0.105
1384,-0.205,0.085
1385,-0.215,0.085
1386,-0.220,0.095
1387,-0.220,0.125
1388,-0.225,0.095
1389,-0.220,0.085
1390,-0.215,0.095
1391,-0.210,0.095
1392,-0.210,0.090
1393,-0.205,0.090
1394,-0.195,0.115
1395,-0.200,0.120
1396,-0.200,0.105
1397,-0.200,0.100
1398,-0.185,0.120
1399,-0.185,0.130
1400,-0.190,0.105
1401,-0.185,0.095
1402,-0.190,0.095
1403,-0.200,0.100
1404,-0.210,0.105
1405,-0.215,0.110
1406,-0.225,0.115
1407,-0.250,0.105
1408,-0.245,0.090
1409,-0.230,0.110
1410,-0.235,0.120
1411,-0.235,0.115
1412,-0.220,0.110
1413,-0.215,0.105
1414,-0.210,0.105
1415,-0.205,0.075
1416,-0.195,0.105
1417,-0.200,0.130
1418,-0.215,0.120
1419,-0.235,0.105
1420,-0.235,0.110
1421,-0.225,0.100
1422,-0.170,0.115
1423,-0.085,0.110
1424,0.015,0.115
1425,0.115,0.130
1426,0.205,0.115
1427,0.295,0.100
1428,0.405,0.115
1429,0.535,0.135
1430,0.685,0.115
1431,0.825,0.115
1432,0.950,0.125
1433,1.050,0.135
1434,1.115,0.145
1435,1.110,0.150
1436,0.995,0.160
1437,0.755,0.155
1438,0.325,0.140
1439,-0.135,0.145
1440,-0.420,0.165
1441,-0.540,0.190
1442,-0.545,0.175
1443,-0.520,0.165
1444,-0.460,0.165
1445,-0.410,0.165
1446,-0.370,0.145
1447,-0.365,0.140
1448,-0.340,0.160
1449,-0.350,0.165
1450,-0.350,0.140
1451,-0.375,0.130
1452,-0.380,0.145
1453,-0.380,0.155
1454,-0.355,0.130
1455,-0.330,0.105
1456,-0.340,0.120
1457,-0.345,0.125
1458,-0.325,0.120
1459,-0.300,0.115
1460,-0.275,0.125
1461,-0.280,0.135
1462,-0.290,0.115
1463,-0.310,0.105
1464,-0.310,0.120
1465,-0.300,0.140
1466,-0.295,0.140
1467,-0.300,0.115
1468,-0.315,0.110
1469,-0.340,0.120
1470,-0.335,0.115
1471,-0.305,0.120
1472,-0.285,0.125
1473,-0.280,0.130
1474,-0.295,0.125
1475,-0.300,0.120
1476,-0.295,0.120
1477,-0.285,0.140
1478,-0.275,0.120
1479,-0.285,0.110
1480,-0.280,0.125
1481,-0.285,0.115
1482,-0.270,0.110
1483,-0.265,0.125
1484,-0.270,0.125
1485,-0.270,0.125
1486,-0.270,0.100
1487,-0.260,0.100
1488,-0.240,0.115
1489,-0.255,0.140
1490,-0.255,0.125
1491,-0.255,0.100
1492,-0.255,0.105
1493,-0.265,0.105
1494,-0.260,0.110
1495,-0.250,0.105
1496,-0.255,0.120
1497,-0.255,0.130
1498,-0.260,0.105
1499,-0.270,0.100
1500,-0.255,0.110
1501,-0.260,0.130
1502,-0.275,0.115
1503,-0.260,0.090
1504,-0.250,0.085
1505,-0.235,0.115
1506,-0.225,0.120
1507,-0.225,0.115
1508,-0.230,0.095
1509,-0.220,0.115
1510,-0.215,0.095
1511,-0.205,0.075
1512,-0.195,0.085
1513,-0.200,0.120
1514,-0.205,0.115
1515,-0.220,0.105
1516,-0.210,0.095
1517,-0.220,0.110
1518,-0.210,0.105
1519,-0.205,0.100
1520,-0.185,0.085
1521,-0.195,0.110
1522,-0.195,0.125
1523,-0.195,0.105
1524,-0.175,0.100
1525,-0.150,0.120
1526,-0.140,0.130
1527,-0.145,0.090
1528,-0.160,0.070
1529,-0.160,0.090
1530,-0.145,0.100
1531,-0.135,0.105
1532,-0.125,0.075
1533,-0.125,0.090
1534,-0.140,0.095
1535,-0.130,0.080
1536,-0.110,0.075
1537,-0.105,0.100
1538,-0.110,0.115
1539,-0.130,0.100
1540,-0.135,0.080
1541,-0.140,0.095
1542,-0.140,0.110
1543,-0.140,0.115
1544,-0.125,0.090
1545,-0.125,0.085
1546,-0.110,0.105
1547,-0.105,0.110
1548,-0.125,0.095
1549,-0.120,0.120
1550,-0.110,0.125
1551,-0.110,0.125
1552,-0.130,0.085
1553,-0.145,0.095
1554,-0.145,0.130
1555,-0.140,0.120
1556,-0.140,0.110
1557,-0.135,0.120
1558,-0.160,0.110
1559,-0.165,0.105
1560,-0.165,0.110
1561,-0.155,0.110
1562,-0.145,0.120
1563,-0.155,0.130
1564,-0.170,0.125
1565,-0.175,0.110
1566,-0.160,0.125
1567,-0.155,0.135
1568,-0.150,0.120
1569,-0.165,0.090
1570,-0.185,0.095
1571,-0.190,0.125
1572,-0.180,0.145
1573,-0.160,0.130
1574,-0.160,0.130
1575,-0.160,0.130
1576,-0.170,0.125
1577,-0.190,0.110
1578,-0.175,0.100
1579,-0.180,0.130
1580,-0.180,0.140
1581,-0.165,0.120
1582,-0.155,0.110
1583,-0.145,0.120
1584,-0.110,0.150
1585,-0.070,0.150
1586,-0.050,0.125
1587,-0.025,0.120
1588,-0.005,0.145
1589,0.000,0.140
1590,0.030,0.145
1591,0.060,0.140
1592,0.075,0.145
1593,0.085,0.140
1594,0.075,0.105
1595,0.090,0.090
1596,0.135,0.095
1597,0.155,0.110
1598,0.145,0.060
1599,0.090,0.045
1600,-0.025,0.030
1601,-0.240,0.020
1602,-0.580,-0.005
1603,-0.965,-0.015
1604,-1.340,-0.005
1605,-1.695,0.015
1606,-1.980,0.005
1607,-2.125,-0.010
1608,-2.135,0.015
1609,-2.125,0.030
1610,-2.090,0.030
1611,-2.075,0.010
1612,-2.015,0.000
1613,-1.950,0.030
1614,-1.850,0.070
1615,-1.735,0.090
1616,-1.645,0.090
1617,-1.550,0.095
1618,-1.425,0.125
1619,-1.290,0.135
1620,-1.185,0.120
1621,-1.105,0.115
1622,-1.035,0.135
1623,-0.965,0.140
1624,-0.900,0.125
1625,-0.830,0.125
1626,-0.765,0.140
1627,-0.705,0.155
1628,-0.660,0.130
1629,-0.635,0.100
1630,-0.575,0.120
1631,-0.520,0.130
1632,-0.460,0.130
1633,-0.405,0.135
1634,-0.350,0.120
1635,-0.290,0.145
1636,-0.215,0.140
1637,-0.160,0.125
1638,-0.095,0.130
1639,-0.025,0.155
1640,0.020,0.180
1641,0.075,0.170
1642,0.120,0.140
1643,0.135,0.150
1644,0.180,0.175
1645,0.200,0.190
1646,0.220,0.155
1647,0.250,0.150
1648,0.270,0.150
1649,0.280,0.165
1650,0.295,0.175
1651,0.315,0.165
1652,0.345,0.165
1653,0.360,0.170
1654,0.375,0.155
1655,0.370,0.150
1656,0.390,0.160
1657,0.405,0.200
1658,0.435,0.195
1659,0.455,0.180
1660,0.470,0.170
1661,0.490,0.185
1662,0.520,0.185
1663,0.545,0.185
1664,0.555,0.160
1665,0.585,0.165
1666,0.600,0.180
1667,0.620,0.180
1668,0.635,0.180
1669,0.670,0.185
1670,0.680,0.195
1671,0.690,0.175
1672,0.685,0.150
1673,0.695,0.150
1674,0.725,0.185
1675,0.740,0.200
1676,0.755,0.180
1677,0.765,0.165
1678,0.765,0.170
1679,0.765,0.185
1680,0.780,0.185
1681,0.800,0.160
1682,0.815,0.165
1683,0.790,0.175
1684,0.790,0.175
1685,0.765,0.160
1686,0.765,0.160
1687,0.780,0.190
1688,0.780,0.185
1689,0.780,0.160
1690,0.745,0.135
1691,0.715,0.150
1692,0.710,0.170
1693,0.710,0.175
1694,0.700,0.155
1695,0.670,0.155
1696,0.630,0.150
1697,0.580,0.130
1698,0.535,0.130
1699,0.495,0.160
1700,0.465,0.175
1701,0.445,0.155
1702,0.410,0.145
1703,0.395,0.135
1704,0.375,0.170
1705,0.365,0.165
1706,0.345,0.135
1707,0.320,0.140
1708,0.280,0.160
1709,0.245,0.160
1710,0.215,0.145
1711,0.195,0.155
1712,0.180,0.150
1713,0.150,0.145
1714,0.120,0.130
1715,0.095,0.125
1716,0.095,0.150
1717,0.095,0.160
1718,0.080,0.145
1719,0.065,0.130
1720,0.040,0.140
1721,0.020,0.135
1722,0.000,0.120
1723,0.000,0.115
1724,0.000,0.140
1725,-0.020,0.145
1726,-0.020,0.120
1727,-0.030,0.115
1728,-0.035,0.135
1729,-0.030,0.140
1730,-0.030,0.125
1731,-0.040,0.090
1732,-0.070,0.120
1733,-0.080,0.135
1734,-0.065,0.120
1735,-0.070,0.125
1736,-0.055,0.135
1737,-0.070,0.125
1738,-0.085,0.100
1739,-0.090,0.085
1740,-0.090,0.115
1741,-0.060,0.135
1742,-0.055,0.110
1743,-0.065,0.100
1744,-0.095,0.105
1745,-0.105,0.110
1746,-0.105,0.080
1747,-0.090,0.095
1748,-0.080,0.105
1749,-0.075,0.105
1750,-0.085,0.080
1751,-0.100,0.080
1752,-0.075,0.115
1753,-0.080,0.115
1754,-0.080,0.090
1755,-0.085,0.080
1756,-0.110,0.100
1757,-0.120,0.105
1758,-0.110,0.085
1759,-0.095,0.100
1760,-0.080,0.110
1761,-0.090,0.105
1762,-0.090,0.080
1763,-0.105,0.080
1764,-0.115,0.120
1765,-0.100,0.120
1766,-0.095,0.100
1767,-0.110,0.095
1768,-0.125,0.115
1769,-0.145,0.095
1770,-0.160,0.085
1771,-0.155,0.110
1772,-0.150,0.130
1773,-0.135,0.115
1774,-0.125,0.080
1775,-0.130,0.110
1776,-0.110,0.125
1777,-0.125,0.120
1778,-0.120,0.100
1779,-0.130,0.115
1780,-0.145,0.115
1781,-0.150,0.100
1782,-0.145,0.100
1783,-0.140,0.130
1784,-0.145,0.120
1785,-0.150,0.090
1786,-0.160,0.075
1787,-0.170,0.095
1788,-0.160,0.120
1789,-0.155,0.115
1790,-0.155,0.095
1791,-0.155,0.110
1792,-0.150,0.125
1793,-0.160,0.100
1794,-0.160,0.095
1795,-0.160,0.125
1796,-0.145,0.140
1797,-0.150,0.115
1798,-0.155,0.075
1799,-0.180,0.105
1800,-0.175,0.120
1801,-0.165,0.105
1802,-0.155,0.090
1803,-0.145,0.105
1804,-0.165,0.125
1805,-0.180,0.115
1806,-0.170,0.100
1807,-0.160,0.120
1808,-0.165,0.135
1809,-0.165,0.135
1810,-0.160,0.095
1811,-0.155,0.095
1812,-0.145,0.130
1813,-0.135,0.150
1814,-0.115,0.125
1815,-0.105,0.125
1816,-0.095,0.135
1817,-0.090,0.145
1818,-0.085,0.110
1819,-0.090,0.120
1820,-0.095,0.135
1821,-0.120,0.125
1822,-0.150,0.115
1823,-0.170,0.100
1824,-0.165,0.125
1825,-0.170,0.140
1826,-0.170,0.110
1827,-0.170,0.095
1828,-0.180,0.100
1829,-0.180,0.115
1830,-0.170,0.100
1831,-0.175,0.100
1832,-0.180,0.125
1833,-0.185,0.125
1834,-0.190,0.100
1835,-0.200,0.095
1836,-0.175,0.115
1837,-0.175,0.140
1838,-0.165,0.120
1839,-0.140,0.090
1840,-0.140,0.105
1841,-0.155,0.115
1842,-0.155,0.110
1843,-0.155,0.105
1844,-0.160,0.105
1845,-0.175,0.125
1846,-0.190,0.105
1847,-0.205,0.095
1848,-0.205,0.095
1849,-0.200,0.130
1850,-0.190,0.120
1851,-0.200,0.090
1852,-0.210,0.080
1853,-0.220,0.100
1854,-0.210,0.120
1855,-0.210,0.105
1856,-0.205,0.110
1857,-0.205,0.125
1858,-0.200,0.120
1859,-0.200,0.090
1860,-0.185,0.090
1861,-0.185,0.120
1862,-0.185,0.135
1863,-0.190,0.120
1864,-0.205,0.100
1865,-0.210,0.105
1866,-0.215,0.125
1867,-0.220,0.120
1868,-0.250,0.080
1869,-0.260,0.080
1870,-0.235,0.095
1871,-0.195,0.095
1872,-0.135,0.095
1873,-0.030,0.100
1874,0.095,0.110
1875,0.195,0.115
1876,0.285,0.100
1877,0.360,0.090
1878,0.460,0.125
1879,0.580,0.145
1880,0.695,0.135
1881,0.810,0.115
1882,0.895,0.130
1883,0.945,0.145
1884,0.940,0.135
1885,0.845,0.130
1886,0.725,0.120
1887,0.545,0.145
1888,0.285,0.160
1889,-0.025,0.140
1890,-0.270,0.155
1891,-0.405,0.190
1892,-0.470,0.185
1893,-0.490,0.160
1894,-0.465,0.135
1895,-0.425,0.165
1896,-0.385,0.175
1897,-0.350,0.160
1898,-0.340,0.145
1899,-0.315,0.150
1900,-0.315,0.145
1901,-0.330,0.125
1902,-0.350,0.115
1903,-0.360,0.130
1904,-0.375,0.130
1905,-0.380,0.115
1906,-0.380,0.085
1907,-0.380,0.070
1908,-0.360,0.105
1909,-0.345,0.100
1910,-0.320,0.080
1911,-0.310,0.075
1912,-0.320,0.090
1913,-0.335,0.100
1914,-0.335,0.075
1915,-0.330,0.090
1916,-0.330,0.105
1917,-0.325,0.105
1918,-0.345,0.070
1919,-0.335,0.055
1920,-0.335,0.070
1921,-0.340,0.115
1922,-0.320,0.085
1923,-0.325,0.055
1924,-0.325,0.050
1925,-0.325,0.080
1926,-0.310,0.085
1927,-0.305,0.070
1928,-0.310,0.070
1929,-0.315,0.085
1930,-0.315,0.085
1931,-0.305,0.070
1932,-0.300,0.060
1933,-0.295,0.105
1934,-0.285,0.110
1935,-0.295,0.075
1936,-0.300,0.055
1937,-0.310,0.075
1938,-0.300,0.100
1939,-0.275,0.095
1940,-0.275,0.080
1941,-0.280,0.085
1942,-0.280,0.095
1943,-0.290,0.095
1944,-0.295,0.075
1945,-0.280,0.100
1946,-0.290,0.110
1947,-0.285,0.105
1948,-0.295,0.070
1949,-0.300,0.065
1950,-0.285,0.095
1951,-0.260,0.115
1952,-0.245,0.095
1953,-0.225,0.070
1954,-0.240,0.070
1955,-0.265,0.100
1956,-0.270,0.095
1957,-0.260,0.085
1958,-0.265,0.080
1959,-0.235,0.105
1960,-0.245,0.090
1961,-0.250,0.070
1962,-0.240,0.065
1963,-0.240,0.100
1964,-0.225,0.120
1965,-0.220,0.095
1966,-0.235,0.080
1967,-0.235,0.080
1968,-0.225,0.105
1969,-0.220,0.120
1970,-0.235,0.085
1971,-0.250,0.080
1972,-0.240,0.090
1973,-0.230,0.110
1974,-0.185,0.090
1975,-0.175,0.085
1976,-0.160,0.100
1977,-0.170,0.115
1978,-0.190,0.095
1979,-0.205,0.070
1980,-0.200,0.085
1981,-0.215,0.100
1982,-0.210,0.120
1983,-0.190,0.095
1984,-0.200,0.070
1985,-0.205,0.090
1986,-0.180,0.120
1987,-0.175,0.105
1988,-0.175,0.085
1989,-0.180,0.080
1990,-0.190,0.090
1991,-0.205,0.090
1992,-0.190,0.080
1993,-0.185,0.095
1994,-0.160,0.115
1995,-0.175,0.115
1996,-0.200,0.100
1997,-0.220,0.085
1998,-0.220,0.110
1999,-0.200,0.130
2000,-0.190,0.125
2001,-0.170,0.090
2002,-0.175,0.090
2003,-0.185,0.115
2004,-0.180,0.130
2005,-0.180,0.115
2006,-0.170,0.095
2007,-0.170,0.110
2008,-0.170,0.120
2009,-0.225,0.110
2010,-0.205,0.100
2011,-0.215,0.125
2012,-0.225,0.130
2013,-0.225,0.135
2014,-0.220,0.110
2015,-0.215,0.095
2016,-0.195,0.125
2017,-0.195,0.145
2018,-0.195,0.120
2019,-0.215,0.115
2020,-0.235,0.115
2021,-0.220,0.140
2022,-0.210,0.110
2023,-0.180,0.110
2024,-0.190,0.125
2025,-0.180,0.125
2026,-0.195,0.110
2027,-0.215,0.100
2028,-0.210,0.120
2029,-0.210,0.135
2030,-0.210,0.130
2031,-0.225,0.105
2032,-0.240,0.080
2033,-0.260,0.115
2034,-0.250,0.110
2035,-0.240,0.100
2036,-0.230,0.090
2037,-0.220,0.105
2038,-0.250,0.105
2039,-0.270,0.080
2040,-0.265,0.075
2041,-0.275,0.100
2042,-0.260,0.095
2043,-0.255,0.090
2044,-0.250,0.055
2045,-0.250,0.070
2046,-0.235,0.100
2047,-0.220,0.110
2048,-0.210,0.075
2049,-0.210,0.065
2050,-0.205,0.070
2051,-0.210,0.075
2052,-0.190,0.065
2053,-0.175,0.055
2054,-0.155,0.050
2055,-0.080,0.045
2056,0.015,0.030
2057,0.085,0.000
2058,0.120,0.010
2059,0.115,0.040
2060,0.100,0.025
2061,0.090,0.000
2062,0.020,-0.005
2063,-0.110,0.010
2064,-0.395,0.015
2065,-0.790,-0.005
2066,-1.175,-0.005
2067,-1.450,0.015
2068,-1.645,0.015
2069,-1.770,0.000
2070,-1.845,0.020
2071,-1.905,0.045
2072,-1.915,0.045
2073,-1.890,0.025
2074,-1.875,0.020
2075,-1.860,0.055
2076,-1.775,0.070
2077,-1.610,0.080
2078,-1.445,0.090
2079,-1.305,0.100
2080,-1.210,0.105
2081,-1.150,0.095
2082,-1.050,0.110
2083,-0.960,0.130
2084,-0.910,0.125
2085,-0.885,0.115
2086,-0.860,0.095
2087,-0.825,0.125
2088,-0.790,0.115
2089,-0.725,0.120
2090,-0.670,0.105
2091,-0.590,0.110
2092,-0.575,0.105
2093,-0.540,0.090
2094,-0.495,0.085
2095,-0.435,0.110
2096,-0.360,0.130
2097,-0.280,0.110
2098,-0.220,0.095
2099,-0.160,0.110
2100,-0.100,0.135
2101,-0.045,0.120
2102,0.000,0.115
2103,0.035,0.135
2104,0.055,0.135
2105,0.060,0.100
2106,0.080,0.115
2107,0.095,0.140
2108,0.105,0.135
2109,0.105,0.105
2110,0.115,0.095
2111,0.165,0.130
2112,0.195,0.140
2113,0.215,0.115
2114,0.230,0.120
2115,0.230,0.135
2116,0.225,0.120
2117,0.225,0.095
2118,0.250,0.110
2119,0.280,0.150
2120,0.310,0.145
2121,0.330,0.105
2122,0.350,0.110
2123,0.345,0.120
2124,0.370,0.125
2125,0.400,0.120
2126,0.415,0.125
2127,0.435,0.140
2128,0.425,0.110
2129,0.425,0.105
2130,0.435,0.120
2131,0.450,0.135
2132,0.465,0.115
2133,0.495,0.100
2134,0.520,0.120
2135,0.525,0.105
2136,0.525,0.110
2137,0.545,0.125
2138,0.560,0.115
2139,0.565,0.105
2140,0.555,0.090
2141,0.525,0.105
2142,0.530,0.125
2143,0.530,0.120
2144,0.520,0.100
2145,0.510,0.095
2146,0.480,0.105
2147,0.455,0.090
2148,0.460,0.085
2149,0.455,0.130
2150,0.440,0.125
2151,0.435,0.100
2152,0.395,0.090
2153,0.355,0.105
2154,0.345,0.110
2155,0.340,0.090
2156,0.335,0.100
2157,0.305,0.120
2158,0.260,0.110
2159,0.205,0.080
2160,0.155,0.105
2161,0.130,0.105
2162,0.095,0.105
2163,0.095,0.080
2164,0.060,0.085
2165,0.040,0.095
2166,0.010,0.095
2167,0.010,0.100
2168,-0.015,0.110
2169,-0.040,0.105
2170,-0.060,0.090
2171,-0.075,0.085
2172,-0.065,0.100
2173,-0.060,0.120
2174,-0.060,0.110
2175,-0.075,0.090
2176,-0.100,0.090
2177,-0.095,0.095
2178,-0.100,0.095
2179,-0.110,0.100
2180,-0.120,0.110
2181,-0.145,0.115
2182,-0.155,0.095
2183,-0.175,0.090
2184,-0.170,0.100
2185,-0.150,0.120
2186,-0.155,0.100
2187,-0.160,0.090
2188,-0.185,0.095
2189,-0.215,0.095
2190,-0.220,0.100
2191,-0.185,0.105
2192,-0.180,0.110
2193,-0.165,0.090
2194,-0.180,0.085
2195,-0.180,0.090
2196,-0.175,0.125
2197,-0.160,0.130
2198,-0.135,0.110
2199,-0.145,0.110
2200,-0.145,0.105
2201,-0.150,0.100
2202,-0.130,0.095
2203,-0.120,0.120
2204,-0.135,0.125
2205,-0.140,0.110
2206,-0.145,0.085
2207,-0.145,0.095
2208,-0.145,0.125
2209,-0.140,0.115
2210,-0.160,0.100
2211,-0.150,0.105
2212,-0.155,0.120
2213,-0.160,0.085
2214,-0.155,0.100
2215,-0.180,0.120
2216,-0.180,0.125
2217,-0.165,0.100
2218,-0.170,0.080
2219,-0.180,0.100
2220,-0.200,0.115
2221,-0.195,0.125
2222,-0.185,0.110
2223,-0.185,0.100
2224,-0.195,0.105
2225,-0.225,0.085
2226,-0.215,0.085
2227,-0.195,0.105
2228,-0.160,0.135
2229,-0.150,0.105
2230,-0.175,0.090
2231,-0.190,0.095
2232,-0.205,0.095
2233,-0.195,0.115
2234,-0.180,0.095
2235,-0.175,0.090
2236,-0.170,0.110
2237,-0.190,0.110
2238,-0.160,0.105
2239,-0.145,0.115
2240,-0.135,0.125
2241,-0.140,0.120
2242,-0.145,0.085
2243,-0.170,0.095
2244,-0.160,0.135
2245,-0.135,0.150
2246,-0.125,0.125
2247,-0.165,0.110
2248,-0.200,0.105
2249,-0.225,0.100
2250,-0.215,0.110
2251,-0.190,0.110
2252,-0.170,0.120
2253,-0.175,0.120
2254,-0.185,0.100
2255,-0.185,0.110
2256,-0.155,0.110
2257,-0.150,0.130
2258,-0.135,0.115
2259,-0.130,0.090
2260,-0.125,0.115
2261,-0.135,0.115
2262,-0.120,0.135
2263,-0.100,0.120
2264,-0.090,0.130
2265,-0.080,0.125
2266,-0.080,0.110
2267,-0.095,0.095
2268,-0.090,0.115
2269,-0.085,0.130
2270,-0.110,0.125
2271,-0.120,0.105
2272,-0.130,0.095
2273,-0.155,0.100
2274,-0.135,0.100
2275,-0.135,0.085
2276,-0.125,0.105
2277,-0.140,0.105
2278,-0.155,0.095
2279,-0.175,0.075
2280,-0.150,0.075
2281,-0.165,0.110
2282,-0.165,0.105
2283,-0.160,0.070
2284,-0.185,0.055
2285,-0.215,0.070
2286,-0.210,0.095
2287,-0.175,0.095
2288,-0.145,0.080
2289,-0.150,0.090
2290,-0.170,0.090
2291,-0.180,0.085
2292,-0.150,0.065
2293,-0.150,0.090
2294,-0.135,0.110
2295,-0.155,0.095
2296,-0.170,0.070
2297,-0.195,0.070
2298,-0.185,0.095
2299,-0.185,0.090
2300,-0.170,0.060
2301,-0.170,0.070
2302,-0.180,0.075
2303,-0.185,0.090
2304,-0.185,0.085
2305,-0.195,0.080
2306,-0.210,0.100
2307,-0.210,0.100
2308,-0.200,0.075
2309,-0.175,0.060
2310,-0.165,0.080
2311,-0.165,0.110
2312,-0.185,0.095
2313,-0.210,0.075
2314,-0.240,0.075
2315,-0.245,0.080
2316,-0.245,0.085
2317,-0.240,0.075
2318,-0.215,0.075
2319,-0.185,0.080
2320,-0.125,0.090
2321,-0.050,0.070
2322,0.035,0.070
2323,0.145,0.105
2324,0.235,0.100
2325,0.325,0.075
2326,0.440,0.065
2327,0.555,0.090
2328,0.695,0.130
2329,0.830,0.135
2330,0.965,0.115
2331,1.095,0.120
2332,1.155,0.125
2333,1.145,0.110
2334,1.065,0.090
2335,0.920,0.110
2336,0.660,0.140
2337,0.215,0.140
2338,-0.185,0.120
2339,-0.405,0.135
2340,-0.480,0.155
2341,-0.490,0.150
2342,-0.460,0.130
2343,-0.420,0.120
2344,-0.370,0.130
2345,-0.350,0.130
2346,-0.340,0.130
2347,-0.340,0.120
2348,-0.340,0.120
2349,-0.355,0.130
2350,-0.385,0.100
2351,-0.390,0.085
2352,-0.375,0.095
2353,-0.365,0.120
2354,-0.370,0.120
2355,-0.360,0.090
2356,-0.355,0.085
2357,-0.370,0.080
2358,-0.335,0.095
2359,-0.315,0.090
2360,-0.305,0.070
2361,-0.295,0.080
2362,-0.310,0.100
2363,-0.320,0.085
2364,-0.305,0.090
2365,-0.290,0.105
2366,-0.275,0.100
2367,-0.275,0.085
2368,-0.265,0.060
2369,-0.275,0.065
2370,-0.285,0.090
2371,-0.280,0.110
2372,-0.275,0.090
2373,-0.265,0.085
2374,-0.270,0.085
2375,-0.265,0.095
2376,-0.250,0.080
2377,-0.255,0.085
2378,-0.265,0.100
2379,-0.275,0.105
2380,-0.300,0.095
2381,-0.310,0.070
2382,-0.300,0.095
2383,-0.270,0.115
2384,-0.255,0.100
2385,-0.260,0.080
2386,-0.265,0.065
2387,-0.275,0.095
2388,-0.245,0.110
2389,-0.235,0.105
2390,-0.260,0.100
2391,-0.290,0.110
2392,-0.305,0.110
2393,-0.315,0.090
2394,-0.305,0.080
2395,-0.285,0.110
2396,-0.265,0.125
2397,-0.245,0.125
2398,-0.240,0.105
2399,-0.235,0.100
2400,-0.235,0.115
2401,-0.220,0.135
2402,-0.200,0.105
2403,-0.210,0.090
2404,-0.225,0.105
2405,-0.255,0.120
2406,-0.235,0.110
2407,-0.220,0.105
2408,-0.205,0.125
2409,-0.200,0.120
2410,-0.200,0.100
2411,-0.210,0.095
2412,-0.235,0.110
2413,-0.250,0.130
2414,-0.250,0.125
2415,-0.235,0.115
2416,-0.215,0.110
2417,-0.210,0.110
2418,-0.200,0.105
2419,-0.195,0.115
2420,-0.180,0.115
2421,-0.185,0.125
2422,-0.180,0.120
2423,-0.185,0.095
2424,-0.155,0.125
2425,-0.140,0.140
2426,-0.120,0.125
2427,-0.145,0.095
2428,-0.185,0.095
2429,-0.235,0.115
2430,-0.225,0.140
2431,-0.195,0.125
2432,-0.155,0.125
2433,-0.145,0.135
2434,-0.125,0.130
2435,-0.125,0.110
2436,-0.120,0.105
2437,-0.120,0.145
2438,-0.125,0.140
2439,-0.135,0.115
2440,-0.135,0.120
2441,-0.150,0.120
2442,-0.135,0.115
2443,-0.125,0.105
2444,-0.120,0.120
2445,-0.105,0.130
2446,-0.100,0.110
2447,-0.105,0.095
2448,-0.120,0.110
2449,-0.140,0.120
2450,-0.135,0.100
2451,-0.150,0.075
2452,-0.150,0.085
2453,-0.165,0.105
2454,-0.160,0.105
2455,-0.150,0.080
2456,-0.165,0.100
2457,-0.185,0.110
2458,-0.185,0.070
2459,-0.195,0.070
2460,-0.190,0.095
2461,-0.190,0.110
2462,-0.200,0.095
2463,-0.210,0.075
2464,-0.230,0.075
2465,-0.230,0.090
2466,-0.205,0.080
2467,-0.180,0.060
2468,-0.185,0.070
2469,-0.175,0.090
2470,-0.175,0.085
2471,-0.190,0.060
2472,-0.190,0.075
2473,-0.230,0.105
2474,-0.275,0.085
2475,-0.295,0.065
2476,-0.290,0.060
2477,-0.275,0.075
2478,-0.250,0.095
2479,-0.215,0.075
2480,-0.180,0.080
2481,-0.185,0.085
2482,-0.170,0.065
2483,-0.170,0.060
2484,-0.130,0.075
2485,-0.100,0.095
2486,-0.065,0.090
2487,-0.045,0.065
2488,-0.055,0.070
2489,-0.045,0.070
2490,-0.030,0.060
2491,-0.025,0.040
2492,0.000,0.040
2493,0.020,0.045
2494,0.010,0.020
2495,-0.030,0.000
2496,-0.085,0.000
2497,-0.195,0.005
2498,-0.445,-0.030
2499,-0.835,-0.060
2500,-1.260,-0.055
2501,-1.635,-0.035
2502,-1.945,-0.040
2503,-2.130,-0.045
2504,-2.175,-0.030
2505,-2.175,-0.015
2506,-2.155,-0.045
2507,-2.130,-0.055
2508,-2.070,-0.010
2509,-1.985,0.025
2510,-1.880,0.020
2511,-1.770,0.015
2512,-1.660,0.045
2513,-1.545,0.065
2514,-1.395,0.065
2515,-1.210,0.070
2516,-1.085,0.080
2517,-1.005,0.105
2518,-0.950,0.085
2519,-0.900,0.070
2520,-0.845,0.100
2521,-0.775,0.115
2522,-0.710,0.095
2523,-0.670,0.080
2524,-0.635,0.080
2525,-0.590,0.105
2526,-0.520,0.095
2527,-0.455,0.085
2528,-0.400,0.100
2529,-0.345,0.115
2530,-0.250,0.090
2531,-0.165,0.070
2532,-0.090,0.110
2533,-0.030,0.145
2534,0.040,0.130
2535,0.095,0.115
2536,0.140,0.125
2537,0.160,0.135
2538,0.175,0.130
2539,0.215,0.130
2540,0.240,0.140
2541,0.275,0.155
2542,0.275,0.135
2543,0.285,0.135
2544,0.315,0.165
2545,0.320,0.180
2546,0.340,0.140
2547,0.355,0.140
2548,0.380,0.150
2549,0.385,0.145
2550,0.400,0.145
2551,0.425,0.150
2552,0.465,0.170
2553,0.495,0.165
2554,0.505,0.130
2555,0.515,0.140
2556,0.555,0.170
2557,0.600,0.185
2558,0.625,0.155
2559,0.630,0.165
2560,0.630,0.165
2561,0.645,0.150
2562,0.655,0.140
2563,0.690,0.165
2564,0.710,0.170
2565,0.720,0.165
2566,0.720,0.140
2567,0.715,0.145
2568,0.720,0.180
2569,0.735,0.180
2570,0.735,0.165
2571,0.755,0.155
2572,0.740,0.170
2573,0.730,0.160
2574,0.740,0.160
2575,0.760,0.175
2576,0.770,0.195
2577,0.750,0.175
2578,0.730,0.145
2579,0.710,0.155
2580,0.700,0.175
2581,0.690,0.190
2582,0.680,0.165
2583,0.660,0.170
2584,0.635,0.170
2585,0.600,0.155
2586,0.575,0.150
2587,0.545,0.165
2588,0.495,0.170
2589,0.455,0.165
2590,0.440,0.140
2591,0.420,0.155
2592,0.395,0.175
2593,0.380,0.160
2594,0.365,0.140
2595,0.355,0.140
2596,0.315,0.160
2597,0.280,0.145
2598,0.250,0.135
2599,0.240,0.155
2600,0.230,0.170
2601,0.215,0.145
2602,0.195,0.115
2603,0.180,0.125
2604,0.160,0.150
2605,0.150,0.165
2606,0.125,0.140
2607,0.115,0.140
2608,0.090,0.150
2609,0.055,0.135
2610,0.040,0.125
2611,0.010,0.125
2612,-0.015,0.145
2613,-0.035,0.145
2614,-0.040,0.110
2615,-0.045,0.125
2616,-0.045,0.150
2617,-0.030,0.145
2618,-0.040,0.115
2619,-0.030,0.120
2620,-0.040,0.130
2621,-0.050,0.135
2622,-0.050,0.115
2623,-0.055,0.135
2624,-0.065,0.150
2625,-0.065,0.145
2626,-0.065,0.110
2627,-0.070,0.100
2628,-0.080,0.125
2629,-0.105,0.150
2630,-0.105,0.130
2631,-0.105,0.100
2632,-0.115,0.115
2633,-0.105,0.115
2634,-0.085,0.105
2635,-0.085,0.100
2636,-0.095,0.120
2637,-0.090,0.125
2638,-0.110,0.100
2639,-0.120,0.085
2640,-0.120,0.110
2641,-0.120,0.125
2642,-0.105,0.110
2643,-0.110,0.090
2644,-0.115,0.100
2645,-0.135,0.105
2646,-0.140,0.110
2647,-0.125,0.115
2648,-0.120,0.110
2649,-0.110,0.105
2650,-0.130,0.085
2651,-0.140,0.065
2652,-0.155,0.095
2653,-0.155,0.120
2654,-0.155,0.115
2655,-0.160,0.080
2656,-0.175,0.065
2657,-0.195,0.095
2658,-0.180,0.105
2659,-0.170,0.085
2660,-0.155,0.075
2661,-0.140,0.095
2662,-0.130,0.095
2663,-0.140,0.080
2664,-0.160,0.070
2665,-0.175,0.090
2666,-0.190,0.105
2667,-0.210,0.095
2668,-0.200,0.055
2669,-0.180,0.070
2670,-0.170,0.120
2671,-0.180,0.110
2672,-0.170,0.095
2673,-0.185,0.085
2674,-0.180,0.100
2675,-0.195,0.100
2676,-0.185,0.075
2677,-0.180,0.085
2678,-0.175,0.100
2679,-0.185,0.105
2680,-0.200,0.075
2681,-0.225,0.075
2682,-0.225,0.090
2683,-0.205,0.130
2684,-0.185,0.100
2685,-0.190,0.075
2686,-0.195,0.075
2687,-0.185,0.100
2688,-0.170,0.105
2689,-0.170,0.085
2690,-0.190,0.075
2691,-0.210,0.115
2692,-0.220,0.110
2693,-0.225,0.085
2694,-0.200,0.075
2695,-0.185,0.100
2696,-0.180,0.115
2697,-0.210,0.105
2698,-0.215,0.075
2699,-0.210,0.080
2700,-0.195,0.100
2701,-0.205,0.115
2702,-0.215,0.080
2703,-0.205,0.085
2704,-0.195,0.095
2705,-0.200,0.115
2706,-0.210,0.100
2707,-0.215,0.095
2708,-0.215,0.110
2709,-0.205,0.125
2710,-0.195,0.105
2711,-0.205,0.080
2712,-0.180,0.095
2713,-0.165,0.135
2714,-0.160,0.130
2715,-0.130,0.115
2716,-0.130,0.100
2717,-0.135,0.125
2718,-0.125,0.130
2719,-0.145,0.105
2720,-0.155,0.115
2721,-0.185,0.115
2722,-0.200,0.110
2723,-0.210,0.110
2724,-0.205,0.100
2725,-0.195,0.110
2726,-0.190,0.125
2727,-0.190,0.105
2728,-0.185,0.075
2729,-0.185,0.080
2730,-0.170,0.110
2731,-0.180,0.115
2732,-0.180,0.090
2733,-0.185,0.075
2734,-0.180,0.090
2735,-0.190,0.105
2736,-0.220,0.095
2737,-0.255,0.095
2738,-0.260,0.095
2739,-0.270,0.120
2740,-0.265,0.115
2741,-0.240,0.090
2742,-0.230,0.095
2743,-0.205,0.110
2744,-0.210,0.120
2745,-0.240,0.100
2746,-0.260,0.085
2747,-0.265,0.085
2748,-0.270,0.110
2749,-0.255,0.115
2750,-0.260,0.090
2751,-0.265,0.100
2752,-0.275,0.105
2753,-0.265,0.115
2754,-0.255,0.085
2755,-0.235,0.090
2756,-0.245,0.110
2757,-0.260,0.110
2758,-0.260,0.090
2759,-0.270,0.080
2760,-0.255,0.095
2761,-0.230,0.130
2762,-0.230,0.115
2763,-0.245,0.075
2764,-0.240,0.085
2765,-0.260,0.080
2766,-0.270,0.105
2767,-0.280,0.090
2768,-0.285,0.070
2769,-0.290,0.085
2770,-0.295,0.095
2771,-0.290,0.080
2772,-0.255,0.065
2773,-0.200,0.075
2774,-0.120,0.090
2775,-0.050,0.100
2776,0.015,0.070
2777,0.090,0.070
2778,0.180,0.075
2779,0.265,0.115
2780,0.370,0.110
2781,0.480,0.085
2782,0.595,0.080
2783,0.705,0.110
2784,0.790,0.120
2785,0.850,0.105
2786,0.855,0.095
2787,0.795,0.115
2788,0.685,0.125
2789,0.515,0.120
2790,0.280,0.120
2791,0.015,0.140
2792,-0.215,0.165
2793,-0.390,0.155
2794,-0.495,0.125
2795,-0.555,0.140
2796,-0.540,0.175
2797,-0.485,0.165
2798,-0.450,0.135
2799,-0.440,0.115
2800,-0.430,0.120
2801,-0.445,0.125
2802,-0.430,0.120
2803,-0.415,0.105
2804,-0.400,0.110
2805,-0.400,0.115
2806,-0.405,0.100
2807,-0.420,0.075
2808,-0.405,0.075
2809,-0.395,0.105
2810,-0.385,0.105
2811,-0.375,0.070
2812,-0.395,0.050
2813,-0.410,0.050
2814,-0.405,0.090
2815,-0.365,0.105
2816,-0.335,0.075
2817,-0.320,0.060
2818,-0.335,0.075
2819,-0.340,0.090
2820,-0.340,0.085
2821,-0.335,0.075
2822,-0.340,0.075
2823,-0.335,0.090
2824,-0.345,0.095
2825,-0.350,0.070
2826,-0.345,0.060
2827,-0.335,0.075
2828,-0.330,0.090
2829,-0.320,0.080
2830,-0.330,0.050
2831,-0.335,0.050
2832,-0.330,0.085
2833,-0.330,0.100
2834,-0.320,0.090
2835,-0.310,0.055
2836,-0.305,0.045
2837,-0.305,0.070
2838,-0.310,0.080
2839,-0.310,0.075
2840,-0.295,0.055
2841,-0.300,0.080
2842,-0.315,0.080
2843,-0.320,0.065
2844,-0.330,0.065
2845,-0.315,0.070
2846,-0.320,0.075
2847,-0.320,0.060
2848,-0.325,0.035
2849,-0.310,0.030
2850,-0.295,0.065
2851,-0.285,0.080
2852,-0.280,0.070
2853,-0.300,0.050
2854,-0.300,0.035
2855,-0.285,0.055
2856,-0.270,0.070
2857,-0.245,0.075
2858,-0.240,0.055
2859,-0.260,0.070
2860,-0.265,0.080
2861,-0.280,0.080
2862,-0.270,0.070
2863,-0.280,0.075
2864,-0.290,0.090
2865,-0.290,0.080
2866,-0.295,0.070
2867,-0.270,0.055
2868,-0.250,0.080
2869,-0.235,0.105
2870,-0.225,0.100
2871,-0.245,0.085
2872,-0.280,0.080
2873,-0.285,0.085
2874,-0.280,0.085
2875,-0.260,0.080
2876,-0.245,0.080
2877,-0.240,0.095
2878,-0.250,0.090
2879,-0.255,0.095
2880,-0.240,0.075
2881,-0.225,0.095
2882,-0.225,0.105
2883,-0.230,0.105
2884,-0.240,0.075
2885,-0.235,0.060
2886,-0.230,0.080
2887,-0.205,0.100
2888,-0.195,0.110
2889,-0.195,0.085
2890,-0.190,0.070
2891,-0.195,0.080
2892,-0.200,0.095
2893,-0.205,0.090
2894,-0.190,0.080
2895,-0.210,0.080
2896,-0.215,0.090
2897,-0.220,0.105
2898,-0.225,0.110
2899,-0.205,0.090
2900,-0.190,0.105
2901,-0.195,0.105
2902,-0.195,0.100
2903,-0.205,0.075
2904,-0.215,0.090
2905,-0.180,0.105
2906,-0.180,0.115
2907,-0.190,0.120
2908,-0.190,0.095
2909,-0.190,0.095
2910,-0.185,0.100
2911,-0.165,0.120
2912,-0.165,0.130
2913,-0.190,0.100
2914,-0.220,0.085
2915,-0.230,0.090
2916,-0.200,0.120
2917,-0.205,0.130
2918,-0.185,0.110
2919,-0.200,0.110
2920,-0.215,0.115
2921,-0.240,0.115
2922,-0.220,0.125
2923,-0.210,0.110
2924,-0.195,0.110
2925,-0.220,0.115
2926,-0.270,0.120
2927,-0.270,0.105
2928,-0.265,0.110
2929,-0.245,0.130
2930,-0.245,0.125
2931,-0.240,0.115
2932,-0.255,0.095
2933,-0.265,0.085
2934,-0.265,0.115
2935,-0.260,0.140
2936,-0.255,0.130
2937,-0.230,0.105
2938,-0.250,0.110
2939,-0.260,0.115
2940,-0.265,0.120
2941,-0.260,0.115
2942,-0.255,0.100
2943,-0.265,0.110
2944,-0.265,0.110
2945,-0.275,0.120
2946,-0.275,0.115
2947,-0.270,0.120
2948,-0.285,0.120
2949,-0.295,0.110
2950,-0.295,0.100
2951,-0.295,0.080
2952,-0.290,0.095
2953,-0.250,0.125
2954,-0.215,0.125
2955,-0.210,0.110
2956,-0.210,0.090
2957,-0.225,0.095
2958,-0.205,0.120
2959,-0.185,0.125
2960,-0.160,0.100
2961,-0.130,0.085
2962,-0.130,0.085
2963,-0.135,0.110
2964,-0.130,0.105
2965,-0.110,0.100
2966,-0.070,0.095
2967,-0.060,0.080
2968,-0.055,0.075
2969,-0.035,0.070
2970,0.030,0.045
2971,0.115,0.045
2972,0.160,0.065
2973,0.160,0.055
2974,0.120,0.035
2975,0.110,0.035
2976,0.100,0.030
2977,0.075,0.050
2978,-0.005,0.045
2979,-0.160,0.010
2980,-0.430,-0.020
2981,-0.820,-0.005
2982,-1.200,0.030
2983,-1.525,0.055
2984,-1.745,0.035
2985,-1.865,0.020
2986,-1.910,0.010
2987,-1.955,0.040
2988,-1.965,0.040
2989,-1.940,0.035
2990,-1.910,0.035
2991,-1.900,0.030
2992,-1.890,0.060
2993,-1.870,0.075
2994,-1.785,0.070
2995,-1.670,0.095
2996,-1.525,0.100
2997,-1.455,0.105
2998,-1.420,0.090
2999,-1.370,0.075
3000,-1.300,0.090
3001,-1.190,0.120
3002,-1.075,0.135
3003,-0.990,0.125
3004,-0.945,0.105
3005,-0.890,0.095
3006,-0.825,0.110
3007,-0.780,0.135
3008,-0.735,0.095
3009,-0.700,0.080
3010,-0.650,0.075
3011,-0.605,0.090
3012,-0.550,0.105
3013,-0.525,0.095
3014,-0.510,0.075
3015,-0.510,0.095
3016,-0.500,0.090
3017,-0.490,0.085
3018,-0.450,0.080
3019,-0.415,0.070
3020,-0.390,0.075
3021,-0.335,0.085
3022,-0.290,0.090
3023,-0.230,0.085
3024,-0.160,0.080
3025,-0.095,0.100
3026,-0.030,0.115
3027,0.010,0.105
3028,0.030,0.075
3029,0.055,0.065
3030,0.090,0.095
3031,0.120,0.110
3032,0.145,0.115
3033,0.160,0.110
3034,0.175,0.115
3035,0.165,0.110
3036,0.175,0.095
3037,0.195,0.090
3038,0.235,0.100
3039,0.250,0.110
3040,0.255,0.115
3041,0.240,0.105
3042,0.270,0.110
3043,0.280,0.115
3044,0.300,0.130
3045,0.330,0.115
3046,0.355,0.085
3047,0.370,0.075
3048,0.390,0.110
3049,0.395,0.140
3050,0.410,0.135
3051,0.425,0.105
3052,0.430,0.095
3053,0.470,0.100
3054,0.485,0.130
3055,0.520,0.130
3056,0.540,0.100
3057,0.535,0.095
3058,0.535,0.120
3059,0.545,0.140
3060,0.570,0.130
3061,0.590,0.115
3062,0.615,0.115
3063,0.610,0.130
3064,0.620,0.125
3065,0.610,0.120
3066,0.615,0.105
3067,0.630,0.100
3068,0.635,0.110
3069,0.635,0.125
3070,0.655,0.130
3071,0.660,0.100
3072,0.660,0.100
3073,0.660,0.120
3074,0.655,0.140
3075,0.645,0.125
3076,0.610,0.090
3077,0.590,0.085
3078,0.605,0.115
3079,0.615,0.135
3080,0.625,0.140
3081,0.620,0.110
3082,0.590,0.105
3083,0.560,0.135
3084,0.565,0.150
3085,0.560,0.140
3086,0.560,0.105
3087,0.530,0.085
3088,0.495,0.110
3089,0.475,0.125
3090,0.465,0.115
3091,0.475,0.115
3092,0.470,0.110
3093,0.440,0.120
3094,0.420,0.125
3095,0.390,0.110
3096,0.385,0.105
3097,0.360,0.110
3098,0.350,0.120
3099,0.315,0.125
3100,0.280,0.100
3101,0.245,0.105
3102,0.225,0.110
3103,0.215,0.140
3104,0.190,0.135
3105,0.165,0.120
3106,0.150,0.085
3107,0.120,0.090
3108,0.110,0.130
3109,0.085,0.150
3110,0.080,0.125
3111,0.050,0.095
3112,0.030,0.090
3113,0.010,0.110
3114,0.005,0.135
3115,0.005,0.125
3116,0.000,0.105
3117,0.005,0.085
3118,-0.015,0.085
3119,-0.050,0.110
3120,-0.075,0.115
3121,-0.100,0.110
3122,-0.105,0.095
3123,-0.085,0.105
3124,-0.060,0.115
3125,-0.060,0.120
3126,-0.045,0.110
3127,-0.050,0.100
3128,-0.050,0.100
3129,-0.050,0.120
3130,-0.070,0.125
3131,-0.075,0.100
3132,-0.080,0.100
3133,-0.095,0.120
3134,-0.105,0.140
3135,-0.085,0.135
3136,-0.090,0.110
3137,-0.105,0.090
3138,-0.100,0.105
3139,-0.100,0.140
3140,-0.085,0.135
3141,-0.090,0.115
3142,-0.110,0.090
3143,-0.120,0.100
3144,-0.110,0.130
3145,-0.085,0.145
3146,-0.075,0.120
3147,-0.085,0.090
3148,-0.100,0.095
3149,-0.130,0.120
3150,-0.130,0.125
3151,-0.140,0.120
3152,-0.145,0.115
3153,-0.145,0.125
3154,-0.145,0.120
3155,-0.150,0.115
3156,-0.150,0.100
3157,-0.150,0.100
3158,-0.135,0.100
3159,-0.130,0.110
3160,-0.135,0.085
3161,-0.140,0.095
3162,-0.130,0.125
3163,-0.120,0.140
3164,-0.120,0.120
3165,-0.120,0.100
3166,-0.120,0.100
3167,-0.135,0.115
3168,-0.140,0.110
3169,-0.150,0.115
3170,-0.130,0.110
3171,-0.120,0.115
3172,-0.120,0.115
3173,-0.125,0.120
3174,-0.140,0.095
3175,-0.160,0.105
3176,-0.180,0.105
3177,-0.205,0.115
3178,-0.230,0.100
3179,-0.205,0.090
3180,-0.200,0.090
3181,-0.190,0.120
3182,-0.195,0.125
3183,-0.190,0.110
3184,-0.210,0.090
3185,-0.240,0.090
3186,-0.240,0.120
3187,-0.235,0.135
3188,-0.210,0.105
3189,-0.190,0.095
3190,-0.185,0.100
3191,-0.200,0.115
3192,-0.200,0.120
3193,-0.200,0.105
3194,-0.175,0.100
3195,-0.170,0.115
3196,-0.185,0.110
3197,-0.210,0.090
3198,-0.220,0.090
3199,-0.215,0.115
3200,-0.220,0.125
3201,-0.230,0.115
3202,-0.240,0.075
3203,-0.235,0.080
3204,-0.225,0.105
3205,-0.200,0.115
3206,-0.175,0.090
3207,-0.175,0.080
3208,-0.175,0.090
3209,-0.185,0.100
3210,-0.185,0.105
3211,-0.175,0.090
3212,-0.175,0.090
3213,-0.195,0.100
3214,-0.225,0.100
3215,-0.245,0.075
3216,-0.230,0.075
3217,-0.210,0.100
3218,-0.200,0.115
3219,-0.190,0.100
3220,-0.200,0.075
3221,-0.205,0.065
3222,-0.210,0.100
3223,-0.215,0.100
3224,-0.215,0.085
3225,-0.220,0.070
3226,-0.210,0.090
3227,-0.175,0.100
3228,-0.145,0.100
3229,-0.125,0.090
3230,-0.135,0.095
3231,-0.140,0.100
3232,-0.145,0.085
3233,-0.155,0.065
3234,-0.150,0.095
3235,-0.150,0.120
3236,-0.145,0.120
3237,-0.140,0.085
3238,-0.165,0.080
3239,-0.180,0.085
3240,-0.165,0.090
3241,-0.160,0.085
3242,-0.155,0.075
3243,-0.175,0.100
3244,-0.205,0.095
3245,-0.225,0.075
3246,-0.210,0.075
3247,-0.185,0.105
3248,-0.175,0.100
3249,-0.175,0.090
3250,-0.200,0.060
3251,-0.225,0.065
3252,-0.230,0.095
3253,-0.215,0.105
3254,-0.210,0.075
3255,-0.210,0.075
3256,-0.205,0.085
3257,-0.200,0.080
3258,-0.170,0.070
3259,-0.150,0.065
3260,-0.150,0.090
3261,-0.170,0.110
3262,-0.190,0.070
3263,-0.220,0.070
3264,-0.205,0.080
3265,-0.210,0.095
3266,-0.205,0.085
3267,-0.200,0.075
3268,-0.210,0.080
3269,-0.220,0.100
3270,-0.235,0.085
3271,-0.250,0.080
3272,-0.245,0.090
3273,-0.260,0.095
3274,-0.285,0.075
3275,-0.285,0.075
3276,-0.270,0.080
3277,-0.255,0.100
3278,-0.230,0.095
3279,-0.195,0.085
3280,-0.180,0.080
3281,-0.185,0.090
3282,-0.180,0.085
3283,-0.200,0.090
3284,-0.195,0.090
3285,-0.190,0.095
3286,-0.210,0.085
3287,-0.230,0.065
3288,-0.205,0.080
3289,-0.155,0.095
3290,-0.075,0.090
3291,0.010,0.070
3292,0.095,0.055
3293,0.180,0.080
3294,0.270,0.100
3295,0.355,0.095
3296,0.455,0.080
3297,0.560,0.095
3298,0.675,0.100
3299,0.785,0.090
3300,0.905,0.090
3301,1.005,0.120
3302,1.030,0.135
3303,0.995,0.125
3304,0.875,0.100
3305,0.625,0.120
3306,0.220,0.155
3307,-0.170,0.155
3308,-0.390,0.150
3309,-0.445,0.155
3310,-0.475,0.180
3311,-0.475,0.165
3312,-0.420,0.155
3313,-0.370,0.165
3314,-0.345,0.155
3315,-0.335,0.155
3316,-0.340,0.125
3317,-0.365,0.130
3318,-0.380,0.150
3319,-0.390,0.150
3320,-0.400,0.130
3321,-0.395,0.110
3322,-0.380,0.115
3323,-0.385,0.095
3324,-0.385,0.080
3325,-0.395,0.090
3326,-0.375,0.105
3327,-0.330,0.105
3328,-0.300,0.085
3329,-0.295,0.080
3330,-0.325,0.095
3331,-0.345,0.100
3332,-0.350,0.090
3333,-0.340,0.080
3334,-0.320,0.075
3335,-0.285,0.090
3336,-0.270,0.110
3337,-0.265,0.100
3338,-0.270,0.105
3339,-0.260,0.095
3340,-0.295,0.085
3341,-0.315,0.080
3342,-0.320,0.090
3343,-0.315,0.115
3344,-0.295,0.115
3345,-0.285,0.090
3346,-0.275,0.090
3347,-0.285,0.085
3348,-0.275,0.095
3349,-0.270,0.090
3350,-0.265,0.085
3351,-0.265,0.095
3352,-0.270,0.095
3353,-0.275,0.080
3354,-0.280,0.085
3355,-0.260,0.095
3356,-0.260,0.100
3357,-0.255,0.090
3358,-0.260,0.070
3359,-0.275,0.070
3360,-0.260,0.095
3361,-0.255,0.105
3362,-0.250,0.095
3363,-0.260,0.080
3364,-0.265,0.080
3365,-0.265,0.075
3366,-0.280,0.065
3367,-0.275,0.075
3368,-0.265,0.100
3369,-0.250,0.095
3370,-0.240,0.055
3371,-0.220,0.065
3372,-0.190,0.080
3373,-0.180,0.090
3374,-0.210,0.055
3375,-0.280,0.055
3376,-0.355,0.060
3377,-0.355,0.080
3378,-0.300,0.085
3379,-0.265,0.080
3380,-0.250,0.080
3381,-0.290,0.075
3382,-0.330,0.045
3383,-0.325,0.040
3384,-0.280,0.070
3385,-0.265,0.095
3386,-0.250,0.085
3387,-0.250,0.065
3388,-0.245,0.060
3389,-0.250,0.070
3390,-0.250,0.060
3391,-0.250,0.055
3392,-0.240,0.060
3393,-0.235,0.075
3394,-0.235,0.070
3395,-0.230,0.060
3396,-0.195,0.055
3397,-0.185,0.090
3398,-0.165,0.085
3399,-0.160,0.060
3400,-0.175,0.040
3401,-0.185,0.060
3402,-0.165,0.080
3403,-0.135,0.075
3404,-0.135,0.055
3405,-0.120,0.055
3406,-0.140,0.075
3407,-0.150,0.055
3408,-0.140,0.045
3409,-0.135,0.040
3410,-0.150,0.070
3411,-0.170,0.080
3412,-0.165,0.055
3413,-0.180,0.050
3414,-0.175,0.070
3415,-0.160,0.085
3416,-0.150,0.080
3417,-0.165,0.050
3418,-0.155,0.045
3419,-0.155,0.065
3420,-0.150,0.090
3421,-0.145,0.105
3422,-0.145,0.075
3423,-0.145,0.075
3424,-0.145,0.075
3425,-0.150,0.070
3426,-0.165,0.060
3427,-0.175,0.075
3428,-0.160,0.080
3429,-0.165,0.105
3430,-0.190,0.075
3431,-0.185,0.070
3432,-0.190,0.100
3433,-0.190,0.095
3434,-0.185,0.085
3435,-0.180,0.075
3436,-0.205,0.060
3437,-0.205,0.080
3438,-0.210,0.085
3439,-0.210,0.075
3440,-0.205,0.075
3441,-0.220,0.095
3442,-0.215,0.070
3443,-0.220,0.055
3444,-0.200,0.050
3445,-0.200,0.070
3446,-0.195,0.090
3447,-0.205,0.080
3448,-0.230,0.060
3449,-0.235,0.065
3450,-0.230,0.090
3451,-0.210,0.085
3452,-0.220,0.075
3453,-0.225,0.055
3454,-0.235,0.070
3455,-0.240,0.085
3456,-0.210,0.080
3457,-0.190,0.090
3458,-0.130,0.085
3459,-0.105,0.080
3460,-0.080,0.075
3461,-0.070,0.070
3462,-0.055,0.070
3463,-0.025,0.090
3464,-0.005,0.105
3465,0.010,0.075
3466,0.000,0.055
3467,-0.020,0.060
3468,-0.010,0.070
3469,0.030,0.060
3470,0.060,0.020
3471,0.055,-0.005
3472,-0.015,0.005
3473,-0.125,-0.005
3474,-0.265,-0.020
3475,-0.530,-0.030
3476,-0.905,-0.035
3477,-1.310,-0.035
3478,-1.685,-0.060
3479,-1.990,-0.090
3480,-2.185,-0.060
3481,-2.260,-0.030
3482,-2.260,-0.035
3483,-2.250,-0.040
3484,-2.245,-0.040
3485,-2.205,-0.030
3486,-2.140,-0.010
3487,-2.080,-0.025
3488,-2.005,-0.025
3489,-1.905,-0.005
3490,-1.815,0.015
3491,-1.720,0.050
3492,-1.640,0.050
3493,-1.500,0.060
3494,-1.330,0.070
3495,-1.200,0.100
3496,-1.075,0.070
3497,-1.015,0.050
3498,-0.945,0.060
3499,-0.905,0.085
3500,-0.840,0.095
3501,-0.770,0.070
3502,-0.725,0.050
3503,-0.690,0.070
3504,-0.650,0.085
3505,-0.610,0.080
3506,-0.540,0.065
3507,-0.480,0.055
3508,-0.445,0.065
3509,-0.395,0.065
3510,-0.340,0.070
3511,-0.255,0.090
3512,-0.160,0.085
3513,-0.095,0.065
3514,-0.045,0.050
3515,-0.005,0.060
3516,0.050,0.090
3517,0.100,0.115
3518,0.145,0.100
3519,0.165,0.090
3520,0.170,0.095
3521,0.195,0.100
3522,0.220,0.090
3523,0.235,0.085
3524,0.260,0.105
3525,0.285,0.110
3526,0.310,0.090
3527,0.315,0.095
3528,0.335,0.120
3529,0.345,0.135
3530,0.360,0.110
3531,0.370,0.095
3532,0.385,0.090
3533,0.395,0.115
3534,0.405,0.125
3535,0.440,0.120
3536,0.470,0.125
3537,0.490,0.130
3538,0.500,0.110
3539,0.520,0.095
3540,0.525,0.110
3541,0.540,0.125
3542,0.580,0.130
3543,0.605,0.120
3544,0.610,0.100
3545,0.615,0.105
3546,0.640,0.130
3547,0.660,0.125
3548,0.675,0.110
3549,0.685,0.105
3550,0.685,0.125
3551,0.670,0.115
3552,0.685,0.100
3553,0.700,0.125
3554,0.705,0.140
3555,0.705,0.125
3556,0.700,0.095
3557,0.700,0.100
3558,0.705,0.130
3559,0.695,0.130
3560,0.700,0.120
3561,0.700,0.110
3562,0.685,0.120
3563,0.655,0.110
3564,0.655,0.090
3565,0.635,0.090
3566,0.630,0.115
3567,0.620,0.110
3568,0.580,0.095
3569,0.545,0.090
3570,0.525,0.110
3571,0.490,0.115
3572,0.470,0.095
3573,0.430,0.085
3574,0.385,0.095
3575,0.345,0.095
3576,0.305,0.095
3577,0.290,0.095
3578,0.270,0.115
3579,0.250,0.100
3580,0.205,0.075
3581,0.165,0.060
3582,0.140,0.090
3583,0.125,0.110
3584,0.130,0.090
3585,0.115,0.085
3586,0.100,0.085
3587,0.060,0.085
3588,0.040,0.065
3589,0.040,0.075
3590,0.035,0.090
3591,0.025,0.095
3592,-0.005,0.070
3593,-0.060,0.065
3594,-0.080,0.095
3595,-0.085,0.105
3596,-0.075,0.080
3597,-0.090,0.070
3598,-0.110,0.080
3599,-0.130,0.095
