0,-0.260,0.065
1,-0.260,0.065
2,-0.260,0.065
3,-0.260,0.065
4,-0.260,0.065
5,-0.260,0.065
6,-0.260,0.065
7,-0.260,0.065
8,-0.145,0.065
9,-0.175,0.110
10,-0.275,0.125
11,-0.380,0.125
12,-0.405,0.110
13,-0.385,0.105
14,-0.310,0.110
15,-0.240,0.090
16,-0.255,0.060
17,-0.325,0.060
18,-0.375,0.075
19,-0.345,0.110
20,-0.230,0.125
21,-0.120,0.125
22,-0.060,0.110
23,-0.120,0.115
24,-0.220,0.120
25,-0.350,0.160
26,-0.365,0.200
27,-0.335,0.205
28,-0.260,0.205
29,-0.175,0.220
30,-0.105,0.220
31,-0.140,0.230
32,-0.200,0.255
33,-0.235,0.260
34,-0.295,0.265
35,-0.395,0.255
36,-0.490,0.255
37,-0.475,0.265
38,-0.395,0.265
39,-0.315,0.245
40,-0.260,0.230
41,-0.210,0.215
42,-0.200,0.180
43,-0.160,0.170
44,-0.095,0.130
45,-0.040,0.100
46,-0.020,0.040
47,-0.035,0.015
48,-0.090,-0.005
49,-0.170,0.005
50,-0.240,0.040
51,-0.280,0.035
52,-0.300,0.045
53,-0.285,0.020
54,-0.275,0.000
55,-0.245,0.015
56,-0.185,0.040
57,-0.100,0.055
58,-0.055,0.045
59,-0.130,-0.005
60,-0.295,-0.030
61,-0.400,-0.040
62,-0.345,-0.030
63,-0.270,-0.025
64,-0.255,-0.025
65,-0.255,-0.005
66,-0.215,0.015
67,-0.175,0.025
68,-0.155,0.035
69,-0.175,-0.005
70,-0.235,-0.015
71,-0.315,-0.035
72,-0.335,-0.030
73,-0.310,0.005
74,-0.260,0.020
75,-0.260,0.030
76,-0.305,0.035
77,-0.340,0.060
78,-0.280,0.080
79,-0.205,0.140
80,-0.160,0.205
81,-0.215,0.240
82,-0.340,0.245
83,-0.340,0.220
84,-0.165,0.190
85,0.040,0.175
86,0.180,0.145
87,0.230,0.085
88,0.260,0.015
89,0.255,-0.055
90,0.275,-0.080
91,0.430,-0.090
92,0.700,-0.135
93,1.000,-0.210
94,1.285,-0.285
95,1.465,-0.355
96,1.530,-0.410
97,1.480,-0.420
98,1.385,-0.420
99,1.345,-0.415
100,1.355,-0.460
101,1.370,-0.505
102,1.325,-0.510
103,1.260,-0.485
104,1.170,-0.430
105,1.025,-0.400
106,0.830,-0.355
107,0.655,-0.305
108,0.520,-0.255
109,0.420,-0.160
110,0.360,-0.095
111,0.240,-0.060
112,0.000,-0.010
113,-0.255,0.030
114,-0.395,0.065
115,-0.400,0.100
116,-0.290,0.105
117,-0.185,0.100
118,-0.165,0.100
119,-0.285,0.090
120,-0.430,0.080
121,-0.495,0.060
122,-0.485,0.050
123,-0.415,-0.040
124,-0.365,-0.105
125,-0.340,-0.140
126,-0.370,-0.135
127,-0.470,-0.085
128,-0.535,-0.050
129,-0.565,-0.020
130,-0.535,-0.005
131,-0.500,-0.015
132,-0.440,-0.020
133,-0.410,-0.010
134,-0.410,-0.020
135,-0.505,-0.035
136,-0.655,-0.060
137,-0.770,-0.055
138,-0.775,-0.030
139,-0.620,0.005
140,-0.450,0.030
141,-0.405,0.030
142,-0.465,0.035
143,-0.535,0.050
144,-0.575,0.100
145,-0.550,0.155
146,-0.520,0.165
147,-0.510,0.105
148,-0.490,0.050
149,-0.455,-0.015
150,-0.510,-0.030
151,-0.640,-0.010
152,-0.690,0.025
153,-0.615,0.030
154,-0.495,0.025
155,-0.440,0.010
156,-0.405,0.030
157,-0.360,0.030
158,-0.340,0.060
159,-0.425,0.060
160,-0.570,0.070
161,-0.615,0.095
162,-0.525,0.125
163,-0.425,0.160
164,-0.420,0.170
165,-0.430,0.195
166,-0.400,0.175
167,-0.355,0.195
168,-0.365,0.220
169,-0.395,0.245
170,-0.400,0.280
171,-0.355,0.285
172,-0.330,0.265
173,-0.340,0.240
174,-0.330,0.250
175,-0.315,0.270
176,-0.275,0.270
177,-0.215,0.250
178,-0.135,0.205
179,-0.075,0.185
180,-0.080,0.195
181,-0.055,0.190
182,-0.030,0.200
183,-0.020,0.185
184,-0.035,0.160
185,-0.045,0.155
186,-0.050,0.190
187,-0.070,0.220
188,-0.065,0.265
189,-0.140,0.265
190,-0.210,0.245
191,-0.250,0.215
192,-0.205,0.180
193,-0.010,0.160
194,0.125,0.130
195,0.080,0.065
196,-0.050,0.005
197,-0.170,-0.060
198,-0.225,-0.105
199,-0.280,-0.130
200,-0.340,-0.105
201,-0.320,-0.105
202,-0.255,-0.120
203,-0.150,-0.105
204,-0.045,-0.065
205,-0.010,0.005
206,-0.010,0.055
207,0.035,0.050
208,0.015,0.015
209,-0.155,-0.020
210,-0.455,-0.045
211,-0.655,-0.045
212,-0.640,-0.045
213,-0.465,-0.060
214,-0.290,-0.070
215,-0.245,-0.065
216,-0.260,-0.070
217,-0.275,-0.025
218,-0.275,0.015
219,-0.280,0.025
220,-0.320,0.030
221,-0.405,0.025
222,-0.440,0.030
223,-0.380,0.020
224,-0.225,0.025
225,-0.135,0.015
226,-0.175,-0.010
227,-0.250,0.010
228,-0.320,0.030
229,-0.330,0.080
230,-0.260,0.130
231,-0.155,0.130
232,-0.120,0.095
233,-0.180,0.055
234,-0.310,0.055
235,-0.370,0.050
236,-0.330,0.075
237,-0.300,0.075
238,-0.400,0.065
239,-0.500,0.080
240,-0.540,0.080
241,-0.510,0.105
242,-0.390,0.135
243,-0.220,0.120
244,-0.125,0.105
245,-0.165,0.115
246,-0.300,0.160
247,-0.375,0.225
248,-0.370,0.245
249,-0.380,0.235
250,-0.400,0.200
251,-0.385,0.180
252,-0.340,0.150
253,-0.320,0.160
254,-0.305,0.165
255,-0.250,0.135
256,-0.175,0.100
257,-0.145,0.055
258,-0.170,0.040
259,-0.250,0.020
260,-0.320,0.005
261,-0.345,-0.020
262,-0.320,-0.055
263,-0.200,-0.080
264,-0.070,-0.070
265,-0.070,-0.040
266,-0.205,-0.020
267,-0.320,-0.020
268,-0.320,-0.025
269,-0.235,-0.035
270,-0.155,-0.035
271,-0.155,-0.005
272,-0.230,0.030
273,-0.260,0.015
274,-0.215,0.010
275,-0.170,-0.010
276,-0.130,-0.025
277,-0.100,-0.025
278,-0.110,-0.005
279,-0.170,-0.005
280,-0.230,-0.010
281,-0.270,-0.015
282,-0.265,-0.005
283,-0.230,0.005
284,-0.185,0.045
285,-0.160,0.055
286,-0.170,0.050
287,-0.190,0.045
288,-0.185,0.065
289,-0.160,0.105
290,-0.175,0.130
291,-0.215,0.100
292,-0.255,0.065
293,-0.295,0.025
294,-0.300,0.025
295,-0.215,0.025
296,-0.140,0.040
297,-0.110,0.040
298,-0.150,0.015
299,-0.210,0.015
300,-0.245,0.025
301,-0.180,0.040
302,-0.085,0.050
303,-0.045,0.045
304,-0.125,0.030
305,-0.280,0.040
306,-0.435,0.060
307,-0.475,0.095
308,-0.400,0.115
309,-0.265,0.110
310,-0.175,0.080
311,-0.180,0.050
312,-0.230,0.035
313,-0.215,0.030
314,-0.140,0.025
315,-0.110,-0.010
316,-0.165,-0.045
317,-0.245,-0.065
318,-0.290,-0.100
319,-0.290,-0.080
320,-0.280,-0.100
321,-0.275,-0.100
322,-0.225,-0.120
323,-0.200,-0.140
324,-0.210,-0.155
325,-0.265,-0.170
326,-0.280,-0.190
327,-0.235,-0.215
328,-0.195,-0.260
329,-0.185,-0.270
330,-0.200,-0.255
331,-0.185,-0.210
332,-0.125,-0.160
333,-0.050,-0.155
334,0.020,-0.150
335,0.000,-0.145
336,-0.090,-0.125
337,-0.170,-0.100
338,-0.205,-0.080
339,-0.180,-0.065
340,-0.090,-0.060
341,-0.025,-0.045
342,-0.060,-0.010
343,-0.175,0.030
344,-0.215,0.050
345,-0.175,0.025
346,-0.155,0.010
347,-0.145,-0.030
348,-0.080,-0.055
349,0.015,-0.055
350,0.010,-0.035
351,-0.100,-0.045
352,-0.180,-0.045
353,-0.180,-0.045
354,-0.110,-0.015
355,-0.125,0.015
356,-0.205,0.045
357,-0.235,0.025
358,-0.190,-0.005
359,-0.125,-0.040
360,-0.120,-0.050
361,-0.130,-0.030
362,-0.105,0.000
363,-0.035,0.010
364,-0.030,0.025
365,-0.160,0.000
366,-0.325,0.035
367,-0.330,0.095
368,-0.240,0.165
369,-0.185,0.205
370,-0.205,0.210
371,-0.190,0.160
372,-0.155,0.110
373,-0.150,0.060
374,-0.155,0.040
375,-0.190,0.010
376,-0.180,-0.005
377,-0.125,-0.015
378,-0.095,-0.010
379,-0.105,-0.020
380,-0.055,-0.030
381,-0.020,-0.060
382,-0.065,-0.095
383,-0.145,-0.130
384,-0.205,-0.130
385,-0.185,-0.115
386,-0.135,-0.100
387,-0.125,-0.105
388,-0.155,-0.120
389,-0.185,-0.140
390,-0.140,-0.140
391,-0.080,-0.115
392,-0.020,-0.105
393,-0.010,-0.075
394,-0.030,-0.065
395,-0.035,-0.065
396,-0.015,-0.060
397,-0.005,-0.045
398,-0.020,-0.030
399,-0.105,-0.040
400,-0.200,-0.040
401,-0.235,0.000
402,-0.185,0.045
403,-0.155,0.095
404,-0.145,0.115
405,-0.075,0.105
406,-0.030,0.085
407,-0.055,0.035
408,-0.085,-0.005
409,-0.090,-0.015
410,-0.050,0.015
411,0.030,0.005
412,0.135,0.010
413,0.190,0.010
414,0.185,0.030
415,0.170,0.035
416,0.170,0.010
417,0.160,0.015
418,0.125,-0.005
419,0.115,-0.005
420,0.245,0.005
421,0.470,-0.005
422,0.690,-0.020
423,0.860,-0.080
424,1.040,-0.140
425,1.265,-0.215
426,1.485,-0.290
427,1.670,-0.360
428,1.760,-0.370
429,1.815,-0.375
430,1.800,-0.425
431,1.715,-0.480
432,1.630,-0.540
433,1.635,-0.590
434,1.625,-0.635
435,1.535,-0.660
436,1.375,-0.720
437,1.210,-0.730
438,1.065,-0.715
439,0.900,-0.655
440,0.680,-0.595
441,0.330,-0.540
442,0.035,-0.505
443,-0.080,-0.455
444,-0.080,-0.400
445,-0.085,-0.370
446,-0.075,-0.345
447,-0.070,-0.355
448,-0.120,-0.370
449,-0.270,-0.365
450,-0.445,-0.320
451,-0.550,-0.285
452,-0.565,-0.220
453,-0.470,-0.190
454,-0.300,-0.195
455,-0.220,-0.185
456,-0.305,-0.165
457,-0.500,-0.130
458,-0.645,-0.100
459,-0.660,-0.085
460,-0.585,-0.080
461,-0.500,-0.055
462,-0.445,-0.040
463,-0.455,-0.020
464,-0.465,0.015
465,-0.465,0.020
466,-0.500,0.025
467,-0.470,0.020
468,-0.430,0.010
469,-0.400,0.005
470,-0.435,-0.005
471,-0.475,-0.050
472,-0.460,-0.070
473,-0.445,-0.050
474,-0.475,-0.020
475,-0.550,0.035
476,-0.640,0.080
477,-0.655,0.120
478,-0.610,0.125
479,-0.545,0.130
480,-0.475,0.155
481,-0.425,0.165
482,-0.395,0.195
483,-0.410,0.205
484,-0.415,0.225
485,-0.460,0.235
486,-0.475,0.245
487,-0.465,0.280
488,-0.435,0.325
489,-0.405,0.335
490,-0.380,0.345
491,-0.375,0.330
492,-0.380,0.345
493,-0.395,0.365
494,-0.420,0.375
495,-0.455,0.370
496,-0.490,0.335
497,-0.510,0.275
498,-0.475,0.250
499,-0.415,0.235
500,-0.355,0.195
501,-0.340,0.135
502,-0.345,0.040
503,-0.350,-0.020
504,-0.300,-0.055
505,-0.200,-0.075
506,-0.105,-0.105
507,-0.045,-0.135
508,-0.065,-0.160
509,-0.165,-0.165
510,-0.250,-0.150
511,-0.285,-0.125
512,-0.215,-0.105
513,-0.070,-0.095
514,0.060,-0.100
515,0.095,-0.120
516,-0.035,-0.090
517,-0.150,-0.060
518,-0.090,-0.030
519,0.060,-0.010
520,0.135,-0.020
521,0.060,-0.025
522,-0.110,-0.005
523,-0.215,-0.030
524,-0.165,-0.020
525,-0.080,-0.055
526,-0.040,-0.080
527,-0.055,-0.100
528,-0.030,-0.070
529,-0.025,-0.015
530,-0.040,0.015
531,-0.035,0.045
532,-0.080,0.025
533,-0.100,0.020
534,-0.050,0.005
535,0.055,0.010
536,0.075,0.010
537,0.000,-0.010
538,-0.135,-0.030
539,-0.200,-0.020
540,-0.150,0.025
541,-0.070,0.060
542,-0.020,0.100
543,0.010,0.100
544,0.015,0.055
545,0.040,0.030
546,-0.015,0.035
547,-0.095,0.065
548,-0.185,0.095
549,-0.190,0.130
550,-0.155,0.130
551,-0.100,0.135
552,-0.060,0.165
553,-0.025,0.185
554,-0.005,0.195
555,0.015,0.180
556,0.030,0.170
557,0.025,0.165
558,0.020,0.190
559,-0.015,0.165
560,-0.045,0.145
561,-0.080,0.080
562,-0.085,0.035
563,-0.090,0.015
564,-0.085,-0.005
565,-0.080,-0.005
566,-0.105,-0.025
567,-0.100,-0.065
568,-0.090,-0.085
569,-0.025,-0.095
570,-0.010,-0.075
571,-0.040,-0.060
572,-0.090,-0.055
573,-0.105,-0.070
574,-0.055,-0.080
575,-0.010,-0.085
576,-0.025,-0.080
577,-0.090,-0.045
578,-0.140,-0.040
579,-0.190,-0.035
580,-0.225,-0.040
581,-0.210,-0.070
582,-0.110,-0.050
583,-0.050,-0.035
584,-0.055,-0.015
585,-0.070,-0.010
586,-0.045,0.005
587,-0.075,-0.005
588,-0.120,0.010
589,-0.125,0.015
590,-0.025,0.050
591,0.100,0.035
592,0.175,0.030
593,0.085,0.010
594,-0.095,0.025
595,-0.200,0.040
596,-0.220,0.055
597,-0.160,0.050
598,-0.095,0.045
599,-0.055,0.040
600,-0.070,0.075
601,-0.075,0.135
602,-0.075,0.165
603,-0.125,0.150
604,-0.200,0.120
605,-0.260,0.070
606,-0.180,0.060
607,-0.065,0.050
608,0.015,0.060
609,0.020,0.035
610,-0.050,0.040
611,-0.155,0.045
612,-0.215,0.060
613,-0.175,0.080
614,-0.055,0.040
615,0.070,0.020
616,0.110,-0.020
617,0.010,-0.040
618,-0.110,-0.040
619,-0.190,-0.010
620,-0.200,-0.020
621,-0.170,-0.040
622,-0.095,-0.090
623,-0.055,-0.145
624,-0.050,-0.170
625,-0.050,-0.190
626,-0.060,-0.170
627,-0.085,-0.180
628,-0.125,-0.160
629,-0.130,-0.175
630,-0.105,-0.135
631,-0.050,-0.095
632,0.005,-0.060
633,-0.010,-0.050
634,-0.070,-0.015
635,-0.120,0.030
636,-0.125,0.095
637,-0.035,0.145
638,0.065,0.165
639,0.095,0.135
640,0.080,0.090
641,0.015,0.045
642,-0.060,0.025
643,-0.080,0.045
644,0.030,0.070
645,0.200,0.075
646,0.310,0.085
647,0.335,0.090
648,0.335,0.150
649,0.400,0.175
650,0.480,0.175
651,0.590,0.135
652,0.745,0.100
653,0.975,0.055
654,1.215,0.025
655,1.400,-0.025
656,1.480,-0.095
657,1.460,-0.175
658,1.420,-0.245
659,1.425,-0.300
660,1.455,-0.335
661,1.510,-0.370
662,1.545,-0.420
663,1.540,-0.510
664,1.340,-0.580
665,1.070,-0.610
666,0.850,-0.585
667,0.735,-0.525
668,0.640,-0.470
669,0.405,-0.390
670,0.095,-0.330
671,-0.145,-0.260
672,-0.195,-0.205
673,-0.170,-0.150
674,-0.165,-0.105
675,-0.235,-0.105
676,-0.335,-0.145
677,-0.390,-0.150
678,-0.365,-0.120
679,-0.355,-0.085
680,-0.370,-0.040
681,-0.420,-0.015
682,-0.455,-0.025
683,-0.460,-0.050
684,-0.425,-0.110
685,-0.405,-0.135
686,-0.380,-0.145
687,-0.365,-0.155
688,-0.365,-0.170
689,-0.365,-0.135
690,-0.375,-0.095
691,-0.410,-0.055
692,-0.445,-0.035
693,-0.435,-0.050
694,-0.380,-0.085
695,-0.355,-0.095
696,-0.365,-0.095
697,-0.365,-0.075
698,-0.305,-0.045
699,-0.320,-0.035
700,-0.460,-0.025
701,-0.590,-0.010
702,-0.635,0.005
703,-0.565,0.040
704,-0.495,0.070
705,-0.470,0.085
706,-0.480,0.125
707,-0.465,0.135
708,-0.420,0.190
709,-0.370,0.230
710,-0.385,0.290
711,-0.400,0.305
712,-0.475,0.290
713,-0.535,0.260
714,-0.520,0.245
715,-0.440,0.225
716,-0.345,0.205
717,-0.245,0.185
718,-0.185,0.140
719,-0.225,0.125
720,-0.290,0.115
721,-0.320,0.135
722,-0.285,0.145
723,-0.250,0.160
724,-0.265,0.175
725,-0.330,0.165
726,-0.360,0.170
727,-0.310,0.185
728,-0.155,0.215
729,-0.065,0.215
730,-0.155,0.215
731,-0.320,0.180
732,-0.335,0.180
733,-0.235,0.165
734,-0.120,0.155
735,-0.080,0.115
736,-0.145,0.085
737,-0.230,0.070
738,-0.270,0.055
739,-0.195,0.060
740,-0.040,0.040
741,0.055,0.015
742,0.050,-0.010
743,-0.050,-0.045
744,-0.115,-0.080
745,-0.145,-0.065
746,-0.090,-0.030
747,-0.035,0.020
748,0.000,0.055
749,-0.015,0.055
750,-0.020,0.040
751,-0.040,0.020
752,-0.095,-0.035
753,-0.145,-0.060
754,-0.130,-0.080
755,-0.120,-0.100
756,-0.135,-0.055
757,-0.125,-0.010
758,-0.100,0.035
759,-0.135,0.060
760,-0.215,0.080
761,-0.275,0.095
762,-0.235,0.115
763,-0.155,0.115
764,-0.145,0.105
765,-0.205,0.095
766,-0.355,0.095
767,-0.455,0.125
768,-0.415,0.135
769,-0.285,0.195
770,-0.200,0.210
771,-0.225,0.220
772,-0.295,0.210
773,-0.345,0.210
774,-0.365,0.265
775,-0.360,0.295
776,-0.345,0.345
777,-0.320,0.325
778,-0.320,0.290
779,-0.320,0.240
780,-0.305,0.210
781,-0.240,0.205
782,-0.195,0.200
783,-0.235,0.175
784,-0.330,0.130
785,-0.375,0.080
786,-0.345,0.045
787,-0.265,0.015
788,-0.180,0.025
789,-0.150,0.010
790,-0.195,-0.010
791,-0.230,-0.025
792,-0.245,0.005
793,-0.305,0.020
794,-0.360,0.015
795,-0.380,-0.010
796,-0.350,-0.055
797,-0.245,-0.080
798,-0.185,-0.115
799,-0.175,-0.145
800,-0.185,-0.130
801,-0.240,-0.125
802,-0.285,-0.100
803,-0.305,-0.080
804,-0.305,-0.055
805,-0.235,-0.015
806,-0.185,-0.015
807,-0.190,-0.015
808,-0.235,-0.050
809,-0.235,-0.065
810,-0.155,-0.055
811,-0.065,-0.035
812,-0.080,0.015
813,-0.170,0.080
814,-0.280,0.110
815,-0.320,0.115
816,-0.320,0.115
817,-0.305,0.075
818,-0.245,0.030
819,-0.175,0.005
820,-0.150,-0.015
821,-0.175,0.025
822,-0.235,0.085
823,-0.310,0.155
824,-0.340,0.205
825,-0.320,0.165
826,-0.270,0.135
827,-0.230,0.090
828,-0.275,0.070
829,-0.370,0.105
830,-0.385,0.145
831,-0.315,0.165
832,-0.250,0.165
833,-0.250,0.200
834,-0.265,0.240
835,-0.240,0.285
836,-0.200,0.295
837,-0.215,0.225
838,-0.290,0.160
839,-0.335,0.085
840,-0.290,0.060
841,-0.245,0.070
842,-0.230,0.085
843,-0.230,0.070
844,-0.240,0.070
845,-0.215,0.060
846,-0.170,0.070
847,-0.135,0.090
848,-0.015,0.095
849,0.090,0.115
850,0.185,0.120
851,0.185,0.125
852,0.185,0.150
853,0.240,0.150
854,0.325,0.120
855,0.505,0.050
856,0.820,-0.015
857,1.100,-0.075
858,1.190,-0.145
859,1.150,-0.180
860,1.085,-0.215
861,1.080,-0.235
862,1.145,-0.270
863,1.220,-0.310
864,1.280,-0.350
865,1.255,-0.445
866,1.100,-0.480
867,0.835,-0.540
868,0.555,-0.555
869,0.305,-0.530
870,0.150,-0.485
871,0.095,-0.410
872,0.090,-0.335
873,0.055,-0.275
874,-0.090,-0.215
875,-0.290,-0.150
876,-0.435,-0.085
877,-0.465,-0.005
878,-0.435,0.040
879,-0.365,0.070
880,-0.285,0.070
881,-0.265,0.075
882,-0.345,0.090
883,-0.455,0.140
884,-0.535,0.185
885,-0.520,0.215
886,-0.445,0.245
887,-0.380,0.270
888,-0.460,0.295
889,-0.615,0.270
890,-0.680,0.250
891,-0.665,0.185
892,-0.580,0.140
893,-0.550,0.120
894,-0.535,0.145
895,-0.550,0.185
896,-0.530,0.195
897,-0.525,0.165
898,-0.545,0.115
899,-0.565,0.060
900,-0.585,0.055
901,-0.580,0.040
902,-0.565,0.040
903,-0.530,0.025
904,-0.490,0.010
905,-0.460,0.000
906,-0.480,0.005
907,-0.570,0.025
908,-0.600,0.035
909,-0.565,0.005
910,-0.470,-0.005
911,-0.445,-0.015
912,-0.460,0.015
913,-0.495,0.030
914,-0.465,0.020
915,-0.375,-0.005
916,-0.305,-0.020
917,-0.365,0.005
918,-0.480,0.025
919,-0.590,0.045
920,-0.605,0.070
921,-0.530,0.045
922,-0.505,0.005
923,-0.425,0.005
924,-0.345,0.015
925,-0.300,0.030
926,-0.320,0.060
927,-0.375,0.055
928,-0.400,0.070
929,-0.430,0.100
930,-0.450,0.140
931,-0.390,0.170
932,-0.285,0.185
933,-0.255,0.170
934,-0.315,0.160
935,-0.315,0.155
936,-0.280,0.190
937,-0.260,0.235
938,-0.275,0.290
939,-0.260,0.315
940,-0.185,0.305
941,-0.120,0.265
942,-0.145,0.225
943,-0.200,0.200
944,-0.205,0.195
945,-0.160,0.185
946,-0.130,0.175
947,-0.175,0.185
948,-0.260,0.185
949,-0.315,0.230
950,-0.295,0.250
951,-0.245,0.255
952,-0.190,0.210
953,-0.125,0.180
954,-0.095,0.165
955,-0.120,0.160
956,-0.230,0.170
957,-0.345,0.155
958,-0.340,0.125
959,-0.275,0.140
960,-0.265,0.110
961,-0.285,0.095
962,-0.290,0.065
963,-0.245,0.010
964,-0.240,-0.030
965,-0.245,-0.055
966,-0.200,-0.055
967,-0.105,-0.050
968,-0.030,-0.055
969,-0.085,-0.070
970,-0.270,-0.085
971,-0.395,-0.080
972,-0.300,-0.060
973,-0.100,-0.060
974,-0.070,-0.045
975,-0.225,-0.055
976,-0.370,-0.055
977,-0.340,-0.040
978,-0.185,-0.015
979,-0.010,0.030
980,0.055,0.070
981,-0.040,0.110
982,-0.210,0.155
983,-0.310,0.200
984,-0.375,0.285
985,-0.420,0.380
986,-0.460,0.455
987,-0.455,0.485
988,-0.380,0.470
989,-0.330,0.385
990,-0.350,0.265
991,-0.345,0.125
992,-0.230,-0.005
993,-0.055,-0.125
994,0.075,-0.195
995,0.170,-0.205
996,0.255,-0.245
997,0.345,-0.270
998,0.400,-0.320
999,0.620,-0.345
1000,0.795,-0.380
1001,0.865,-0.390
1002,0.815,-0.385
1003,0.765,-0.330
1004,0.735,-0.330
1005,0.605,-0.330
1006,0.400,-0.350
1007,0.215,-0.340
1008,0.095,-0.315
1009,-0.015,-0.300
1010,-0.180,-0.255
1011,-0.305,-0.230
1012,-0.365,-0.185
1013,-0.375,-0.140
1014,-0.405,-0.095
1015,-0.435,-0.045
1016,-0.505,-0.035
1017,-0.585,-0.010
1018,-0.640,0.005
1019,-0.625,0.045
1020,-0.510,0.065
1021,-0.405,0.080
1022,-0.350,0.045
1023,-0.390,0.030
1024,-0.505,0.035
1025,-0.585,0.055
1026,-0.615,0.080
1027,-0.605,0.110
1028,-0.635,0.100
1029,-0.690,0.085
1030,-0.695,0.070
1031,-0.650,0.075
1032,-0.600,0.085
1033,-0.570,0.140
1034,-0.580,0.165
1035,-0.560,0.195
1036,-0.575,0.200
1037,-0.600,0.185
1038,-0.570,0.170
1039,-0.535,0.155
1040,-0.535,0.140
1041,-0.545,0.155
1042,-0.535,0.175
1043,-0.460,0.215
1044,-0.335,0.235
1045,-0.320,0.240
1046,-0.435,0.205
1047,-0.560,0.195
1048,-0.655,0.210
1049,-0.660,0.250
1050,-0.560,0.295
1051,-0.480,0.335
1052,-0.455,0.350
1053,-0.445,0.350
1054,-0.405,0.365
1055,-0.330,0.375
1056,-0.270,0.390
1057,-0.275,0.410
1058,-0.330,0.380
1059,-0.375,0.320
1060,-0.370,0.275
1061,-0.370,0.235
1062,-0.395,0.230
1063,-0.355,0.215
1064,-0.275,0.185
1065,-0.210,0.140
1066,-0.205,0.140
1067,-0.195,0.155
1068,-0.190,0.170
1069,-0.225,0.215
1070,-0.295,0.220
1071,-0.390,0.210
1072,-0.430,0.185
1073,-0.425,0.155
1074,-0.385,0.135
1075,-0.330,0.125
1076,-0.265,0.095
1077,-0.255,0.070
1078,-0.295,0.080
1079,-0.320,0.110
1080,-0.310,0.140
1081,-0.290,0.160
1082,-0.280,0.155
1083,-0.315,0.135
1084,-0.335,0.135
1085,-0.370,0.150
1086,-0.370,0.185
1087,-0.350,0.195
1088,-0.295,0.205
1089,-0.240,0.190
1090,-0.250,0.170
1091,-0.270,0.130
1092,-0.310,0.120
1093,-0.410,0.125
1094,-0.555,0.130
1095,-0.610,0.145
1096,-0.525,0.190
1097,-0.435,0.210
1098,-0.425,0.255
1099,-0.410,0.290
1100,-0.390,0.305
1101,-0.370,0.285
1102,-0.370,0.230
1103,-0.385,0.185
1104,-0.420,0.165
1105,-0.440,0.155
1106,-0.430,0.160
1107,-0.415,0.170
1108,-0.435,0.205
1109,-0.415,0.220
1110,-0.350,0.225
1111,-0.320,0.195
1112,-0.395,0.145
1113,-0.510,0.100
1114,-0.540,0.095
1115,-0.430,0.080
1116,-0.365,0.115
1117,-0.410,0.120
1118,-0.475,0.110
1119,-0.540,0.105
1120,-0.545,0.090
1121,-0.500,0.110
1122,-0.415,0.125
1123,-0.405,0.160
1124,-0.430,0.140
1125,-0.460,0.150
1126,-0.485,0.150
1127,-0.520,0.135
1128,-0.490,0.140
1129,-0.450,0.175
1130,-0.420,0.175
1131,-0.430,0.190
1132,-0.460,0.185
1133,-0.480,0.155
1134,-0.440,0.165
1135,-0.420,0.145
1136,-0.495,0.085
1137,-0.570,0.040
1138,-0.550,0.055
1139,-0.520,0.100
1140,-0.570,0.135
1141,-0.615,0.180
1142,-0.575,0.175
1143,-0.500,0.195
1144,-0.460,0.205
1145,-0.455,0.230
1146,-0.515,0.255
1147,-0.555,0.260
1148,-0.575,0.240
1149,-0.525,0.200
1150,-0.520,0.185
1151,-0.460,0.180
1152,-0.425,0.200
1153,-0.430,0.260
1154,-0.515,0.270
1155,-0.585,0.290
1156,-0.590,0.275
1157,-0.585,0.270
1158,-0.540,0.245
1159,-0.465,0.225
1160,-0.455,0.170
1161,-0.480,0.115
1162,-0.485,0.075
1163,-0.485,0.060
1164,-0.525,0.070
1165,-0.595,0.100
1166,-0.595,0.075
1167,-0.460,0.035
1168,-0.285,-0.020
1169,-0.290,-0.035
1170,-0.495,-0.045
1171,-0.675,-0.010
1172,-0.735,0.005
1173,-0.700,0.035
1174,-0.635,0.055
1175,-0.605,0.090
1176,-0.640,0.105
1177,-0.630,0.125
1178,-0.585,0.110
1179,-0.565,0.085
1180,-0.505,0.065
1181,-0.470,0.075
1182,-0.510,0.090
1183,-0.545,0.140
1184,-0.470,0.175
1185,-0.400,0.185
1186,-0.530,0.200
1187,-0.725,0.240
1188,-0.765,0.240
1189,-0.650,0.235
1190,-0.610,0.205
1191,-0.615,0.165
1192,-0.585,0.150
1193,-0.570,0.145
1194,-0.540,0.155
1195,-0.500,0.185
1196,-0.535,0.180
1197,-0.675,0.185
1198,-0.795,0.175
1199,-0.855,0.210
1200,-0.860,0.240
1201,-0.800,0.245
1202,-0.660,0.245
1203,-0.585,0.255
1204,-0.575,0.250
1205,-0.580,0.265
1206,-0.625,0.300
1207,-0.620,0.320
1208,-0.610,0.300
1209,-0.605,0.290
1210,-0.585,0.240
1211,-0.575,0.255
1212,-0.530,0.245
1213,-0.510,0.235
1214,-0.480,0.225
1215,-0.495,0.225
1216,-0.520,0.215
1217,-0.525,0.200
1218,-0.480,0.190
1219,-0.460,0.145
1220,-0.505,0.085
1221,-0.510,0.035
1222,-0.500,0.000
1223,-0.555,0.015
1224,-0.670,0.040
1225,-0.705,0.060
1226,-0.605,0.060
1227,-0.465,0.065
1228,-0.390,0.055
1229,-0.460,0.080
1230,-0.620,0.095
1231,-0.750,0.100
1232,-0.765,0.120
1233,-0.630,0.110
1234,-0.485,0.130
1235,-0.455,0.125
1236,-0.495,0.175
1237,-0.560,0.185
1238,-0.595,0.170
1239,-0.610,0.155
1240,-0.640,0.135
1241,-0.665,0.150
1242,-0.610,0.155
1243,-0.520,0.170
1244,-0.420,0.170
1245,-0.410,0.165
1246,-0.470,0.190
1247,-0.585,0.220
1248,-0.655,0.220
1249,-0.665,0.240
1250,-0.635,0.220
1251,-0.585,0.190
1252,-0.585,0.215
1253,-0.615,0.255
1254,-0.555,0.295
1255,-0.465,0.325
1256,-0.415,0.320
1257,-0.375,0.290
1258,-0.305,0.290
1259,-0.205,0.285
1260,-0.110,0.280
1261,0.035,0.250
1262,0.270,0.205
1263,0.470,0.160
1264,0.615,0.125
1265,0.920,0.115
1266,1.290,0.065
1267,1.465,-0.010
1268,1.395,-0.080
1269,1.210,-0.135
1270,1.125,-0.200
1271,1.170,-0.260
1272,1.315,-0.320
1273,1.435,-0.380
1274,1.320,-0.470
1275,0.995,-0.500
1276,0.675,-0.495
1277,0.440,-0.465
1278,0.200,-0.435
1279,-0.070,-0.400
1280,-0.320,-0.375
1281,-0.430,-0.330
1282,-0.540,-0.275
1283,-0.690,-0.185
1284,-0.745,-0.095
1285,-0.650,-0.030
1286,-0.620,-0.010
1287,-0.710,-0.010
1288,-0.825,0.020
1289,-0.840,0.035
1290,-0.795,0.060
1291,-0.810,0.080
1292,-0.875,0.075
1293,-0.935,0.100
1294,-0.940,0.115
1295,-0.890,0.125
1296,-0.800,0.175
1297,-0.770,0.240
1298,-0.850,0.275
1299,-1.035,0.300
1300,-1.180,0.305
1301,-1.180,0.285
1302,-1.090,0.275
1303,-1.030,0.230
1304,-1.050,0.200
1305,-1.080,0.185
1306,-1.045,0.195
1307,-0.985,0.220
1308,-0.930,0.250
1309,-0.935,0.275
1310,-0.965,0.290
1311,-1.025,0.305
1312,-1.085,0.325
1313,-1.105,0.355
1314,-1.085,0.380
1315,-1.055,0.380
1316,-1.040,0.375
1317,-0.985,0.365
1318,-0.950,0.355
1319,-0.930,0.365
1320,-0.935,0.395
1321,-0.935,0.435
1322,-0.890,0.430
1323,-0.860,0.410
1324,-0.905,0.390
1325,-0.965,0.400
1326,-0.975,0.415
1327,-0.895,0.425
1328,-0.820,0.420
1329,-0.840,0.395
1330,-0.945,0.390
1331,-1.040,0.380
1332,-1.005,0.380
1333,-0.915,0.340
1334,-0.825,0.290
1335,-0.785,0.260
1336,-0.810,0.260
1337,-0.875,0.295
1338,-0.930,0.335
1339,-0.895,0.350
1340,-0.810,0.320
1341,-0.705,0.290
1342,-0.640,0.255
1343,-0.645,0.245
1344,-0.730,0.250
1345,-0.795,0.265
1346,-0.790,0.275
1347,-0.720,0.285
1348,-0.650,0.295
1349,-0.570,0.310
1350,-0.480,0.335
1351,-0.395,0.360
1352,-0.355,0.340
1353,-0.425,0.280
1354,-0.545,0.240
1355,-0.620,0.250
1356,-0.650,0.275
1357,-0.690,0.320
1358,-0.725,0.360
1359,-0.720,0.415
1360,-0.680,0.460
1361,-0.635,0.480
1362,-0.640,0.485
1363,-0.645,0.450
1364,-0.590,0.400
1365,-0.495,0.345
1366,-0.445,0.320
1367,-0.475,0.305
1368,-0.525,0.315
1369,-0.540,0.325
1370,-0.535,0.330
1371,-0.540,0.320
1372,-0.545,0.325
1373,-0.545,0.355
1374,-0.510,0.340
1375,-0.475,0.315
1376,-0.415,0.275
1377,-0.340,0.245
1378,-0.325,0.220
1379,-0.335,0.215
1380,-0.380,0.235
1381,-0.445,0.290
1382,-0.520,0.310
1383,-0.530,0.320
1384,-0.445,0.300
1385,-0.405,0.265
1386,-0.520,0.205
1387,-0.635,0.115
1388,-0.640,0.015
1389,-0.540,-0.050
1390,-0.455,-0.095
1391,-0.395,-0.070
1392,-0.380,-0.040
1393,-0.410,0.010
1394,-0.465,0.050
1395,-0.485,0.070
1396,-0.470,0.080
1397,-0.475,0.100
1398,-0.485,0.120
1399,-0.455,0.115
1400,-0.390,0.085
1401,-0.305,0.045
1402,-0.245,0.015
1403,-0.175,0.040
1404,-0.220,0.075
1405,-0.390,0.140
1406,-0.565,0.175
1407,-0.660,0.200
1408,-0.675,0.205
1409,-0.680,0.250
1410,-0.670,0.240
1411,-0.575,0.260
1412,-0.490,0.230
1413,-0.445,0.250
1414,-0.455,0.295
1415,-0.495,0.335
1416,-0.500,0.365
1417,-0.525,0.330
1418,-0.545,0.270
1419,-0.560,0.230
1420,-0.530,0.200
1421,-0.440,0.190
1422,-0.400,0.210
1423,-0.430,0.250
1424,-0.430,0.285
1425,-0.325,0.310
1426,-0.210,0.300
1427,-0.220,0.270
1428,-0.325,0.260
1429,-0.420,0.235
1430,-0.480,0.220
1431,-0.465,0.215
1432,-0.380,0.225
1433,-0.300,0.250
1434,-0.310,0.260
1435,-0.380,0.270
1436,-0.445,0.255
1437,-0.485,0.230
1438,-0.500,0.210
1439,-0.440,0.205
1440,-0.355,0.185
1441,-0.350,0.150
1442,-0.425,0.085
1443,-0.530,-0.005
1444,-0.550,-0.055
1445,-0.470,-0.055
1446,-0.375,-0.035
1447,-0.375,0.000
1448,-0.440,0.055
1449,-0.485,0.095
1450,-0.450,0.125
1451,-0.435,0.135
1452,-0.410,0.130
1453,-0.370,0.125
1454,-0.250,0.095
1455,-0.130,0.080
1456,-0.085,0.080
1457,-0.210,0.080
1458,-0.390,0.105
1459,-0.525,0.120
1460,-0.520,0.105
1461,-0.410,0.090
1462,-0.275,0.130
1463,-0.220,0.200
1464,-0.155,0.310
1465,-0.065,0.390
1466,-0.040,0.395
1467,-0.170,0.340
1468,-0.360,0.265
1469,-0.325,0.205
1470,-0.095,0.180
1471,0.145,0.160
1472,0.240,0.175
1473,0.205,0.205
1474,0.195,0.205
1475,0.295,0.215
1476,0.490,0.165
1477,0.790,0.120
1478,1.110,0.035
1479,1.355,-0.035
1480,1.405,-0.100
1481,1.355,-0.095
1482,1.360,-0.085
1483,1.465,-0.105
1484,1.560,-0.210
1485,1.550,-0.320
1486,1.365,-0.410
1487,1.045,-0.380
1488,0.860,-0.325
1489,0.795,-0.300
1490,0.645,-0.280
1491,0.350,-0.245
1492,0.060,-0.210
1493,-0.130,-0.150
1494,-0.215,-0.065
1495,-0.295,0.010
1496,-0.415,0.050
1497,-0.515,0.065
1498,-0.555,0.090
1499,-0.510,0.110
1500,-0.450,0.145
1501,-0.445,0.220
1502,-0.530,0.310
1503,-0.600,0.380
1504,-0.550,0.415
1505,-0.425,0.390
1506,-0.365,0.325
1507,-0.445,0.240
1508,-0.540,0.210
1509,-0.560,0.225
1510,-0.550,0.280
1511,-0.525,0.320
1512,-0.510,0.315
1513,-0.540,0.280
1514,-0.550,0.230
1515,-0.565,0.140
1516,-0.610,0.035
1517,-0.610,-0.085
1518,-0.545,-0.165
1519,-0.440,-0.220
1520,-0.455,-0.240
1521,-0.580,-0.195
1522,-0.685,-0.125
1523,-0.660,-0.030
1524,-0.595,0.010
1525,-0.585,-0.020
1526,-0.610,-0.110
1527,-0.575,-0.185
1528,-0.545,-0.215
1529,-0.535,-0.195
1530,-0.495,-0.145
1531,-0.415,-0.115
1532,-0.390,-0.115
1533,-0.400,-0.115
1534,-0.430,-0.110
1535,-0.420,-0.080
1536,-0.385,-0.040
1537,-0.300,0.005
1538,-0.210,-0.010
1539,-0.255,-0.025
1540,-0.360,-0.040
1541,-0.365,0.005
1542,-0.290,0.090
1543,-0.285,0.135
1544,-0.330,0.135
1545,-0.310,0.075
1546,-0.200,0.010
1547,-0.105,0.010
1548,-0.140,0.065
1549,-0.230,0.140
1550,-0.250,0.225
1551,-0.215,0.230
1552,-0.170,0.140
1553,-0.175,0.060
1554,-0.145,0.020
1555,-0.055,0.025
1556,0.010,0.005
1557,0.020,0.015
1558,-0.020,0.045
1559,-0.020,0.100
1560,-0.040,0.165
1561,-0.095,0.200
1562,-0.170,0.215
1563,-0.165,0.195
1564,-0.135,0.195
1565,-0.145,0.200
1566,-0.155,0.195
1567,-0.125,0.165
1568,-0.060,0.135
1569,-0.005,0.135
1570,-0.040,0.185
1571,-0.090,0.210
1572,-0.140,0.205
1573,-0.145,0.170
1574,-0.175,0.125
1575,-0.185,0.085
1576,-0.155,0.070
1577,-0.135,0.050
1578,-0.145,0.030
1579,-0.120,-0.010
1580,-0.070,-0.050
1581,-0.025,-0.065
1582,-0.060,-0.080
1583,-0.150,-0.080
1584,-0.225,-0.090
1585,-0.260,-0.120
1586,-0.210,-0.170
1587,-0.185,-0.215
1588,-0.160,-0.250
1589,-0.200,-0.225
1590,-0.240,-0.175
1591,-0.235,-0.110
1592,-0.165,-0.060
1593,-0.120,0.010
1594,-0.105,0.055
1595,-0.120,0.060
1596,-0.215,0.040
1597,-0.275,-0.005
1598,-0.240,-0.080
1599,-0.135,-0.100
1600,-0.115,-0.105
1601,-0.145,-0.060
1602,-0.165,-0.005
1603,-0.140,0.020
1604,-0.100,0.010
1605,-0.070,-0.010
1606,-0.120,-0.015
1607,-0.220,0.000
1608,-0.245,0.050
1609,-0.150,0.100
1610,-0.105,0.170
1611,-0.130,0.220
1612,-0.100,0.270
1613,-0.030,0.275
1614,0.045,0.220
1615,0.095,0.115
1616,0.120,-0.010
1617,0.100,-0.090
1618,-0.050,-0.110
1619,-0.265,-0.035
1620,-0.330,0.030
1621,-0.240,0.010
1622,-0.170,-0.035
1623,-0.165,-0.100
1624,-0.145,-0.115
1625,-0.080,-0.085
1626,-0.035,-0.055
1627,-0.035,-0.015
1628,-0.075,-0.010
1629,-0.150,-0.015
1630,-0.190,-0.020
1631,-0.140,-0.005
1632,-0.080,0.010
1633,-0.070,-0.015
1634,-0.100,-0.060
1635,-0.100,-0.105
1636,-0.060,-0.140
1637,-0.005,-0.160
1638,-0.020,-0.170
1639,-0.060,-0.190
1640,-0.080,-0.195
1641,-0.075,-0.170
1642,-0.065,-0.120
1643,-0.010,-0.050
1644,0.080,-0.020
1645,0.175,-0.065
1646,0.160,-0.160
1647,0.030,-0.240
1648,-0.055,-0.295
1649,-0.030,-0.285
1650,0.050,-0.230
1651,0.120,-0.195
1652,0.040,-0.155
1653,-0.115,-0.120
1654,-0.145,-0.085
1655,-0.070,-0.040
1656,0.015,-0.025
1657,0.085,0.000
1658,0.075,0.030
1659,0.035,0.075
1660,0.040,0.130
1661,0.085,0.155
1662,0.125,0.155
1663,0.130,0.130
1664,0.115,0.125
1665,0.035,0.150
1666,0.005,0.145
1667,0.025,0.110
1668,0.180,0.010
1669,0.400,-0.055
1670,0.415,-0.095
1671,0.200,-0.070
1672,0.005,-0.040
1673,-0.050,-0.005
1674,0.060,0.025
1675,0.210,0.045
1676,0.275,0.035
1677,0.215,0.000
1678,0.060,-0.035
1679,-0.090,-0.075
1680,-0.085,-0.115
1681,0.020,-0.135
1682,0.100,-0.110
1683,0.145,-0.075
1684,0.125,-0.045
1685,0.030,0.000
1686,0.000,0.020
1687,-0.025,0.000
1688,-0.015,-0.025
1689,-0.020,-0.065
1690,0.000,-0.100
1691,0.040,-0.135
1692,0.025,-0.175
1693,0.015,-0.225
1694,0.000,-0.285
1695,-0.005,-0.265
1696,0.005,-0.230
1697,0.065,-0.170
1698,0.200,-0.145
1699,0.255,-0.165
1700,0.140,-0.255
1701,-0.025,-0.290
1702,-0.025,-0.315
1703,0.215,-0.295
1704,0.505,-0.265
1705,0.590,-0.245
1706,0.455,-0.240
1707,0.285,-0.205
1708,0.265,-0.150
1709,0.355,-0.075
1710,0.545,-0.055
1711,0.765,-0.050
1712,1.060,-0.105
1713,1.395,-0.155
1714,1.645,-0.200
1715,1.840,-0.270
1716,1.925,-0.345
1717,1.965,-0.400
1718,1.965,-0.475
1719,1.900,-0.535
1720,1.805,-0.555
1721,1.750,-0.550
1722,1.665,-0.560
1723,1.540,-0.560
1724,1.385,-0.550
1725,1.185,-0.570
1726,0.960,-0.545
1727,0.625,-0.520
1728,0.280,-0.460
1729,0.040,-0.400
1730,-0.055,-0.330
1731,-0.080,-0.240
1732,-0.080,-0.185
1733,-0.100,-0.140
1734,-0.115,-0.090
1735,-0.115,-0.060
1736,-0.150,-0.050
1737,-0.155,-0.080
1738,-0.220,-0.095
1739,-0.235,-0.085
1740,-0.195,-0.070
1741,-0.125,-0.055
1742,-0.100,-0.070
1743,-0.110,-0.085
1744,-0.130,-0.060
1745,-0.175,-0.020
1746,-0.220,0.060
1747,-0.250,0.095
1748,-0.190,0.025
1749,-0.060,-0.145
1750,0.050,-0.305
1751,0.025,-0.465
1752,-0.110,-0.500
1753,-0.270,-0.470
1754,-0.315,-0.410
1755,-0.290,-0.375
1756,-0.230,-0.315
1757,-0.190,-0.255
1758,-0.120,-0.240
1759,-0.070,-0.270
1760,-0.050,-0.335
1761,-0.105,-0.390
1762,-0.200,-0.375
1763,-0.330,-0.285
1764,-0.375,-0.210
1765,-0.280,-0.150
1766,-0.140,-0.145
1767,-0.065,-0.110
1768,-0.060,-0.100
1769,-0.015,-0.070
1770,0.055,-0.025
1771,0.010,0.005
1772,-0.165,0.025
1773,-0.260,0.050
1774,-0.225,0.055
1775,-0.120,0.075
1776,-0.050,0.105
1777,0.040,0.100
1778,0.085,0.100
1779,0.125,0.125
1780,0.150,0.135
1781,0.195,0.160
1782,0.240,0.165
1783,0.140,0.140
1784,-0.010,0.115
1785,-0.130,0.100
1786,-0.090,0.110
1787,0.040,0.155
1788,0.140,0.215
1789,0.140,0.300
1790,0.085,0.330
1791,0.125,0.340
1792,0.240,0.330
1793,0.315,0.295
1794,0.250,0.285
1795,0.115,0.245
1796,-0.055,0.185
1797,-0.090,0.115
1798,0.015,0.015
1799,0.130,-0.090
1800,0.245,-0.135
1801,0.365,-0.170
1802,0.365,-0.190
1803,0.230,-0.220
1804,0.115,-0.225
1805,0.080,-0.225
1806,0.210,-0.210
1807,0.370,-0.205
1808,0.425,-0.230
1809,0.400,-0.285
1810,0.430,-0.330
1811,0.505,-0.345
1812,0.455,-0.345
1813,0.265,-0.325
1814,0.120,-0.330
1815,0.085,-0.335
1816,0.090,-0.325
1817,0.080,-0.265
1818,0.055,-0.205
1819,0.030,-0.145
1820,0.060,-0.155
1821,0.095,-0.200
1822,0.075,-0.250
1823,0.075,-0.275
1824,0.165,-0.280
1825,0.305,-0.240
1826,0.365,-0.215
1827,0.310,-0.160
1828,0.185,-0.105
1829,0.140,-0.015
1830,0.165,0.075
1831,0.175,0.120
1832,0.060,0.095
1833,-0.040,0.015
1834,0.030,-0.100
1835,0.195,-0.185
1836,0.285,-0.225
1837,0.265,-0.195
1838,0.210,-0.160
1839,0.215,-0.115
1840,0.235,-0.090
1841,0.265,-0.060
1842,0.280,-0.030
1843,0.275,-0.030
1844,0.265,-0.060
1845,0.255,-0.085
1846,0.240,-0.095
1847,0.225,-0.090
1848,0.290,-0.080
1849,0.460,-0.070
1850,0.615,-0.070
1851,0.665,-0.090
1852,0.580,-0.070
1853,0.370,0.010
1854,0.125,0.115
1855,-0.020,0.215
1856,-0.005,0.270
1857,0.025,0.275
1858,0.060,0.235
1859,0.115,0.160
1860,0.175,0.035
1861,0.300,-0.090
1862,0.385,-0.265
1863,0.405,-0.410
1864,0.460,-0.490
1865,0.580,-0.540
1866,0.725,-0.575
1867,0.880,-0.630
1868,0.910,-0.705
1869,0.855,-0.780
1870,0.855,-0.825
1871,1.065,-0.835
1872,1.360,-0.830
1873,1.575,-0.815
1874,1.620,-0.780
1875,1.445,-0.735
1876,1.220,-0.665
1877,1.170,-0.630
1878,1.250,-0.625
1879,1.240,-0.630
1880,0.960,-0.620
1881,0.520,-0.620
1882,0.260,-0.560
1883,0.250,-0.480
1884,0.290,-0.390
1885,0.200,-0.310
1886,0.000,-0.230
1887,-0.115,-0.175
1888,-0.075,-0.150
1889,-0.040,-0.130
1890,-0.015,-0.100
1891,-0.020,-0.105
1892,-0.005,-0.105
1893,0.030,-0.120
1894,0.045,-0.100
1895,-0.005,-0.070
1896,-0.085,-0.040
1897,-0.090,-0.035
1898,-0.065,-0.035
1899,-0.025,-0.040
1900,-0.020,-0.035
1901,-0.015,-0.020
1902,0.025,0.000
1903,0.090,-0.010
1904,0.135,-0.025
1905,0.125,-0.050
1906,0.055,-0.065
1907,-0.015,-0.065
1908,-0.015,-0.035
1909,0.005,-0.050
1910,0.035,-0.085
1911,0.060,-0.125
1912,0.115,-0.165
1913,0.230,-0.185
1914,0.325,-0.210
1915,0.370,-0.225
1916,0.350,-0.225
1917,0.365,-0.240
1918,0.445,-0.275
1919,0.610,-0.270
1920,0.720,-0.275
1921,0.625,-0.270
1922,0.440,-0.260
1923,0.580,-0.265
1924,0.985,-0.285
1925,0.955,-0.300
1926,0.315,-0.280
1927,-0.325,-0.210
1928,-0.330,-0.100
1929,0.040,-0.055
1930,0.360,-0.010
1931,0.485,0.055
1932,0.495,0.100
1933,0.420,0.105
1934,0.390,0.050
1935,0.420,-0.020
1936,0.505,-0.030
1937,0.560,0.020
1938,0.515,0.110
1939,0.460,0.170
1940,0.450,0.150
1941,0.435,0.080
1942,0.410,-0.010
1943,0.415,-0.045
1944,0.405,-0.060
1945,0.385,-0.030
1946,0.390,-0.025
1947,0.370,-0.030
1948,0.350,-0.010
1949,0.320,0.010
1950,0.310,0.035
1951,0.305,0.025
1952,0.245,0.025
1953,0.170,0.000
1954,0.185,-0.005
1955,0.230,-0.015
1956,0.240,-0.005
1957,0.250,-0.005
1958,0.225,-0.010
1959,0.190,-0.045
1960,0.165,-0.070
1961,0.180,-0.055
1962,0.210,-0.045
1963,0.215,-0.050
1964,0.210,-0.090
1965,0.205,-0.125
1966,0.220,-0.160
1967,0.270,-0.180
1968,0.330,-0.200
1969,0.435,-0.240
1970,0.485,-0.285
1971,0.455,-0.310
1972,0.360,-0.310
1973,0.320,-0.300
1974,0.360,-0.285
1975,0.385,-0.285
1976,0.295,-0.290
1977,0.265,-0.290
1978,0.330,-0.310
1979,0.400,-0.305
1980,0.320,-0.295
1981,0.085,-0.270
1982,-0.100,-0.220
1983,-0.130,-0.140
1984,-0.035,-0.125
1985,0.085,-0.100
1986,0.160,-0.085
1987,0.185,-0.070
1988,0.165,-0.075
1989,0.120,-0.065
1990,0.125,-0.070
1991,0.200,-0.050
1992,0.280,-0.020
1993,0.275,-0.005
1994,0.235,0.000
1995,0.195,-0.015
1996,0.185,-0.005
1997,0.205,0.030
1998,0.285,0.045
1999,0.345,0.050
2000,0.360,0.070
2001,0.360,0.095
2002,0.430,0.125
2003,0.545,0.155
2004,0.630,0.165
2005,0.550,0.145
2006,0.300,0.140
2007,0.080,0.115
2008,0.025,0.070
2009,0.080,0.030
2010,0.140,0.025
2011,0.190,0.060
2012,0.165,0.050
2013,0.105,0.055
2014,0.100,0.065
2015,0.200,0.090
2016,0.385,0.125
2017,0.515,0.070
2018,0.530,-0.010
2019,0.385,-0.110
2020,0.105,-0.135
2021,-0.150,-0.070
2022,-0.235,0.040
2023,-0.100,0.100
2024,0.125,0.085
2025,0.260,0.005
2026,0.320,-0.090
2027,0.315,-0.175
2028,0.325,-0.210
2029,0.335,-0.210
2030,0.300,-0.225
2031,0.230,-0.260
2032,0.110,-0.305
2033,0.040,-0.320
2034,0.015,-0.320
2035,0.125,-0.315
2036,0.295,-0.315
2037,0.500,-0.305
2038,0.630,-0.260
2039,0.615,-0.205
2040,0.460,-0.115
2041,0.135,-0.065
2042,-0.125,-0.035
2043,-0.130,-0.030
2044,0.000,-0.035
2045,0.065,-0.030
2046,0.075,-0.040
2047,0.075,-0.055
2048,0.135,-0.135
2049,0.175,-0.190
2050,0.150,-0.220
2051,0.130,-0.205
2052,0.190,-0.160
2053,0.325,-0.150
2054,0.445,-0.145
2055,0.420,-0.145
2056,0.205,-0.120
2057,-0.070,-0.080
2058,-0.200,-0.035
2059,-0.115,-0.025
2060,0.040,-0.035
2061,0.160,-0.045
2062,0.200,-0.045
2063,0.245,-0.060
2064,0.385,-0.075
2065,0.625,-0.105
2066,0.840,-0.125
2067,0.715,-0.150
2068,0.245,-0.145
2069,-0.165,-0.090
2070,-0.270,-0.005
2071,-0.155,0.015
2072,-0.115,0.005
2073,-0.165,0.005
2074,-0.155,0.020
2075,-0.020,0.020
2076,0.190,0.000
2077,0.410,-0.070
2078,0.525,-0.105
2079,0.485,-0.180
2080,0.235,-0.185
2081,-0.080,-0.135
2082,-0.240,-0.065
2083,-0.125,0.000
2084,0.150,-0.025
2085,0.360,-0.100
2086,0.445,-0.210
2087,0.535,-0.250
2088,0.665,-0.275
2089,0.800,-0.235
2090,0.810,-0.185
2091,0.795,-0.115
2092,0.790,-0.065
2093,0.790,-0.070
2094,0.790,-0.075
2095,0.850,-0.100
2096,1.035,-0.130
2097,1.245,-0.160
2098,1.350,-0.205
2099,1.420,-0.235
2100,1.485,-0.260
2101,1.545,-0.280
2102,1.530,-0.325
2103,1.460,-0.420
2104,1.335,-0.495
2105,1.180,-0.560
2106,1.080,-0.570
2107,1.005,-0.590
2108,0.880,-0.595
2109,0.725,-0.585
2110,0.535,-0.545
2111,0.365,-0.460
2112,0.255,-0.355
2113,0.185,-0.275
2114,0.075,-0.195
2115,0.000,-0.150
2116,0.010,-0.075
2117,0.035,-0.010
2118,-0.025,0.040
2119,-0.065,0.055
2120,-0.055,0.055
2121,0.005,0.045
2122,0.010,0.060
2123,-0.130,0.075
2124,-0.250,0.080
2125,-0.230,0.065
2126,-0.165,0.005
2127,-0.175,-0.045
2128,-0.310,-0.065
2129,-0.440,-0.010
2130,-0.445,0.015
2131,-0.380,-0.005
2132,-0.335,-0.050
2133,-0.330,-0.120
2134,-0.330,-0.145
2135,-0.280,-0.135
2136,-0.195,-0.130
2137,-0.115,-0.115
2138,-0.060,-0.135
2139,-0.075,-0.165
2140,-0.140,-0.170
2141,-0.200,-0.160
2142,-0.185,-0.150
2143,-0.070,-0.185
2144,-0.040,-0.210
2145,-0.115,-0.205
2146,-0.230,-0.190
2147,-0.285,-0.185
2148,-0.220,-0.165
2149,-0.110,-0.175
2150,-0.010,-0.175
2151,0.055,-0.185
2152,0.035,-0.180
2153,-0.075,-0.150
2154,-0.190,-0.120
2155,-0.235,-0.100
2156,-0.190,-0.085
2157,-0.125,-0.070
2158,-0.130,-0.025
2159,-0.160,0.100
2160,-0.130,0.245
2161,-0.020,0.330
2162,-0.045,0.320
2163,-0.270,0.195
2164,-0.545,0.085
2165,-0.580,-0.015
2166,-0.440,-0.040
2167,-0.295,-0.050
2168,-0.185,-0.085
2169,-0.110,-0.095
2170,-0.105,-0.095
2171,-0.150,-0.060
2172,-0.205,-0.005
2173,-0.225,0.040
2174,-0.195,0.055
2175,-0.130,0.070
2176,-0.085,0.100
2177,-0.035,0.145
2178,-0.010,0.175
2179,-0.015,0.170
2180,-0.035,0.125
2181,-0.035,0.100
2182,0.030,0.095
2183,0.075,0.100
2184,0.055,0.085
2185,0.035,0.095
2186,0.055,0.085
2187,0.065,0.060
2188,0.050,0.055
2189,0.025,0.070
2190,0.000,0.075
2191,0.045,0.080
2192,0.115,0.045
2193,0.175,0.015
2194,0.220,-0.010
2195,0.280,0.000
2196,0.295,0.000
2197,0.180,-0.010
2198,0.035,-0.010
2199,-0.070,0.000
2200,-0.045,0.030
2201,0.150,0.080
2202,0.440,0.140
2203,0.565,0.160
2204,0.395,0.110
2205,0.090,0.030
2206,-0.075,-0.060
2207,-0.130,-0.145
2208,-0.115,-0.180
2209,-0.170,-0.165
2210,-0.160,-0.120
2211,-0.115,-0.065
2212,-0.020,0.030
2213,0.075,0.100
2214,0.140,0.115
2215,0.165,0.070
2216,0.110,0.000
2217,-0.025,-0.085
2218,-0.140,-0.110
2219,-0.145,-0.075
2220,-0.080,-0.040
2221,0.000,-0.025
2222,0.075,-0.030
2223,0.140,-0.040
2224,0.240,-0.035
2225,0.380,-0.020
2226,0.370,-0.030
2227,0.190,-0.030
2228,-0.080,-0.045
2229,-0.135,-0.065
2230,0.130,-0.070
2231,0.455,-0.040
2232,0.590,-0.025
2233,0.405,-0.005
2234,0.105,-0.010
2235,-0.075,-0.005
2236,-0.045,0.065
2237,0.080,0.135
2238,0.185,0.200
2239,0.180,0.250
2240,0.060,0.275
2241,-0.065,0.280
2242,-0.100,0.330
2243,-0.140,0.365
2244,-0.315,0.375
2245,-0.575,0.350
2246,-0.790,0.310
2247,-0.895,0.205
2248,-0.930,0.115
2249,-0.990,0.045
2250,-1.065,-0.015
2251,-1.115,-0.105
2252,-1.150,-0.200
2253,-1.055,-0.295
2254,-0.855,-0.350
2255,-0.625,-0.395
2256,-0.430,-0.470
2257,-0.355,-0.495
2258,-0.460,-0.520
2259,-0.605,-0.505
2260,-0.705,-0.455
2261,-0.655,-0.390
2262,-0.460,-0.325
2263,-0.240,-0.350
2264,-0.085,-0.440
2265,0.105,-0.565
2266,0.320,-0.605
2267,0.495,-0.615
2268,0.445,-0.565
2269,0.280,-0.500
2270,0.180,-0.470
2271,0.200,-0.465
2272,0.180,-0.455
2273,0.065,-0.415
2274,-0.090,-0.360
2275,-0.275,-0.265
2276,-0.405,-0.195
2277,-0.400,-0.125
2278,-0.315,-0.080
2279,-0.200,-0.020
2280,-0.070,0.040
2281,0.040,0.090
2282,0.100,0.115
2283,0.085,0.150
2284,0.030,0.200
2285,0.040,0.215
2286,0.120,0.175
2287,0.100,0.090
2288,-0.005,-0.020
2289,-0.115,-0.120
2290,-0.160,-0.145
2291,-0.155,-0.105
2292,-0.115,-0.070
2293,0.000,-0.050
2294,0.165,-0.055
2295,0.250,-0.070
2296,0.225,-0.070
2297,0.135,-0.045
2298,0.065,-0.030
2299,0.035,-0.020
2300,0.050,-0.005
2301,0.160,-0.005
2302,0.315,0.010
2303,0.455,0.020
2304,0.545,0.020
2305,0.615,0.015
2306,0.575,0.005
2307,0.485,0.015
2308,0.390,0.040
2309,0.380,0.065
2310,0.435,0.095
2311,0.530,0.095
2312,0.605,0.080
2313,0.645,0.060
2314,0.635,0.035
2315,0.595,0.035
2316,0.540,0.050
2317,0.560,0.065
2318,0.705,0.055
2319,0.940,0.025
2320,1.070,0.015
2321,1.085,0.045
2322,1.005,0.075
2323,0.895,0.105
2324,0.780,0.150
2325,0.615,0.160
2326,0.540,0.140
2327,0.540,0.105
2328,0.640,0.080
2329,0.710,0.020
2330,0.670,-0.015
2331,0.585,-0.040
2332,0.535,-0.025
2333,0.520,-0.025
2334,0.535,0.005
2335,0.555,0.035
2336,0.565,0.040
2337,0.550,0.025
2338,0.470,0.025
2339,0.295,0.030
2340,0.140,0.070
2341,0.160,0.060
2342,0.230,0.035
2343,0.280,0.005
2344,0.280,-0.010
2345,0.325,-0.005
2346,0.340,0.010
2347,0.300,0.015
2348,0.175,-0.010
2349,0.080,-0.020
2350,0.050,-0.055
2351,0.040,-0.050
2352,0.150,-0.055
2353,0.340,-0.055
2354,0.440,-0.055
2355,0.315,-0.045
2356,0.085,0.000
2357,-0.130,0.080
2358,-0.190,0.155
2359,-0.200,0.205
2360,-0.255,0.270
2361,-0.345,0.305
2362,-0.440,0.345
2363,-0.565,0.400
2364,-0.740,0.440
2365,-0.965,0.435
2366,-1.190,0.400
2367,-1.370,0.355
2368,-1.430,0.295
2369,-1.400,0.250
2370,-1.325,0.210
2371,-1.155,0.175
2372,-0.875,0.120
2373,-0.580,0.050
2374,-0.400,-0.020
2375,-0.280,-0.095
2376,-0.140,-0.155
2377,-0.020,-0.210
2378,0.040,-0.255
2379,0.040,-0.290
2380,0.005,-0.285
2381,-0.065,-0.305
2382,-0.140,-0.315
2383,-0.185,-0.340
2384,-0.235,-0.365
2385,-0.315,-0.390
2386,-0.365,-0.370
2387,-0.310,-0.310
2388,-0.245,-0.275
2389,-0.200,-0.255
2390,-0.170,-0.240
2391,-0.110,-0.235
2392,-0.035,-0.215
2393,0.010,-0.185
2394,-0.025,-0.145
2395,-0.115,-0.140
2396,-0.170,-0.130
2397,-0.155,-0.115
2398,-0.160,-0.105
2399,-0.230,-0.085
2400,-0.335,-0.065
2401,-0.340,-0.040
2402,-0.275,-0.025
2403,-0.220,-0.020
2404,-0.270,-0.010
2405,-0.365,0.005
2406,-0.380,0.010
2407,-0.315,0.020
2408,-0.200,0.000
2409,-0.135,-0.045
2410,-0.140,-0.065
2411,-0.165,-0.065
2412,-0.175,-0.065
2413,-0.105,-0.060
2414,-0.050,-0.070
2415,-0.045,-0.080
2416,-0.115,-0.090
2417,-0.135,-0.075
2418,-0.025,-0.060
2419,0.205,-0.060
2420,0.395,-0.100
2421,0.405,-0.110
2422,0.235,-0.130
2423,0.025,-0.105
2424,-0.125,-0.065
2425,-0.180,-0.050
2426,-0.205,-0.040
2427,-0.160,-0.040
2428,-0.105,-0.045
2429,-0.040,-0.030
2430,0.025,-0.045
2431,0.075,-0.045
2432,0.180,-0.070
2433,0.295,-0.070
2434,0.330,-0.085
2435,0.270,-0.080
2436,0.220,-0.080
2437,0.200,-0.065
2438,0.255,-0.080
2439,0.280,-0.085
2440,0.300,-0.070
2441,0.345,-0.060
2442,0.390,-0.015
2443,0.410,0.000
2444,0.395,-0.005
2445,0.450,-0.005
2446,0.535,0.015
2447,0.605,0.070
2448,0.575,0.100
2449,0.490,0.125
2450,0.315,0.145
2451,0.105,0.135
2452,-0.015,0.115
2453,0.025,0.080
2454,0.195,0.080
2455,0.315,0.045
2456,0.305,0.040
2457,0.190,0.035
2458,0.110,0.050
2459,0.080,0.095
2460,0.090,0.120
2461,0.095,0.105
2462,-0.030,0.065
2463,-0.240,0.015
2464,-0.315,-0.020
2465,-0.225,-0.040
2466,-0.105,-0.070
2467,-0.040,-0.085
2468,-0.025,-0.110
2469,-0.035,-0.140
2470,-0.035,-0.135
2471,-0.015,-0.145
2472,0.005,-0.120
2473,0.015,-0.120
2474,0.015,-0.130
2475,0.030,-0.125
2476,0.070,-0.120
2477,0.115,-0.100
2478,0.135,-0.080
2479,0.090,-0.085
2480,0.035,-0.105
2481,-0.020,-0.115
2482,-0.040,-0.080
2483,-0.050,-0.070
2484,-0.035,-0.045
2485,-0.020,-0.030
2486,-0.080,-0.010
2487,-0.215,-0.010
2488,-0.335,0.005
2489,-0.310,0.040
2490,-0.155,0.115
2491,0.020,0.135
2492,0.095,0.130
2493,0.120,0.085
2494,0.115,0.070
2495,0.075,0.090
2496,0.020,0.115
2497,-0.035,0.125
2498,-0.125,0.065
2499,-0.195,0.005
2500,-0.195,-0.080
2501,-0.065,-0.120
2502,0.135,-0.120
2503,0.295,-0.100
2504,0.290,-0.055
2505,0.205,-0.005
2506,0.175,0.055
2507,0.220,0.105
2508,0.280,0.135
2509,0.390,0.155
2510,0.530,0.170
2511,0.645,0.185
2512,0.660,0.190
2513,0.660,0.175
2514,0.705,0.175
2515,0.810,0.165
2516,0.890,0.080
2517,1.000,-0.095
2518,1.095,-0.320
2519,1.100,-0.535
2520,0.950,-0.680
2521,0.705,-0.760
2522,0.545,-0.785
2523,0.530,-0.770
2524,0.510,-0.715
2525,0.420,-0.630
2526,0.330,-0.560
2527,0.300,-0.495
2528,0.275,-0.455
2529,0.125,-0.405
2530,-0.175,-0.335
2531,-0.455,-0.245
2532,-0.505,-0.200
2533,-0.270,-0.175
2534,0.065,-0.190
2535,0.205,-0.205
2536,0.020,-0.210
2537,-0.360,-0.170
2538,-0.660,-0.140
2539,-0.750,-0.110
2540,-0.680,-0.070
2541,-0.550,-0.085
2542,-0.425,-0.090
2543,-0.360,-0.070
2544,-0.395,-0.060
2545,-0.505,-0.065
2546,-0.625,-0.060
2547,-0.650,-0.050
2548,-0.590,-0.040
2549,-0.470,-0.035
2550,-0.385,-0.030
2551,-0.335,-0.035
2552,-0.345,-0.055
2553,-0.425,-0.070
2554,-0.505,-0.065
2555,-0.540,-0.055
2556,-0.500,-0.020
2557,-0.425,-0.010
2558,-0.400,-0.020
2559,-0.370,-0.045
2560,-0.355,-0.045
2561,-0.280,-0.055
2562,-0.155,-0.060
2563,-0.065,-0.075
2564,-0.035,-0.095
2565,-0.005,-0.135
2566,0.000,-0.135
2567,-0.065,-0.155
2568,-0.210,-0.165
2569,-0.430,-0.155
2570,-0.610,-0.145
2571,-0.675,-0.145
2572,-0.575,-0.145
2573,-0.395,-0.130
2574,-0.250,-0.105
2575,-0.295,-0.075
2576,-0.445,-0.025
2577,-0.550,0.025
2578,-0.595,0.075
2579,-0.565,0.125
2580,-0.450,0.120
2581,-0.200,0.065
2582,0.010,-0.045
2583,0.065,-0.150
2584,-0.035,-0.195
2585,-0.210,-0.185
2586,-0.310,-0.125
2587,-0.310,-0.085
2588,-0.245,-0.075
2589,-0.170,-0.075
2590,-0.095,-0.105
2591,0.005,-0.125
2592,0.040,-0.125
2593,-0.020,-0.130
2594,-0.140,-0.140
2595,-0.255,-0.145
2596,-0.265,-0.145
2597,-0.185,-0.115
2598,-0.135,-0.085
2599,-0.130,-0.075
2600,-0.145,-0.075
2601,-0.110,-0.080
2602,-0.040,-0.090
2603,0.020,-0.085
2604,0.055,-0.055
2605,0.085,-0.075
2606,0.095,-0.085
2607,0.050,-0.080
2608,0.000,-0.075
2609,-0.040,-0.050
2610,-0.005,-0.025
2611,0.110,-0.030
2612,0.175,-0.035
2613,0.150,-0.030
2614,0.075,-0.025
2615,0.040,-0.045
2616,-0.015,-0.055
2617,-0.030,-0.105
2618,-0.060,-0.120
2619,-0.100,-0.130
2620,-0.200,-0.120
2621,-0.325,-0.085
2622,-0.405,-0.070
2623,-0.365,-0.080
2624,-0.255,-0.080
2625,-0.160,-0.120
2626,-0.115,-0.145
2627,-0.065,-0.130
2628,0.015,-0.120
2629,0.085,-0.130
2630,0.075,-0.150
2631,-0.005,-0.175
2632,-0.075,-0.175
2633,-0.110,-0.160
2634,-0.090,-0.125
2635,-0.075,-0.115
2636,-0.095,-0.120
2637,-0.075,-0.140
2638,0.015,-0.130
2639,0.155,-0.110
2640,0.235,-0.080
2641,0.140,-0.025
2642,-0.040,0.030
2643,-0.180,0.095
2644,-0.105,0.145
2645,0.025,0.165
2646,0.060,0.170
2647,-0.065,0.105
2648,-0.215,0.020
2649,-0.205,-0.070
2650,-0.015,-0.080
2651,0.290,-0.090
2652,0.530,-0.055
2653,0.640,-0.075
2654,0.725,-0.180
2655,0.835,-0.255
2656,0.955,-0.315
2657,1.060,-0.365
2658,1.170,-0.400
2659,1.330,-0.495
2660,1.370,-0.585
2661,1.295,-0.655
2662,1.105,-0.665
2663,0.900,-0.610
2664,0.665,-0.525
2665,0.345,-0.440
2666,0.065,-0.390
2667,0.000,-0.370
2668,0.075,-0.300
2669,0.135,-0.225
2670,0.105,-0.165
2671,0.065,-0.140
2672,0.065,-0.105
2673,0.075,-0.090
2674,-0.025,-0.050
2675,-0.230,-0.010
2676,-0.450,0.030
2677,-0.535,0.030
2678,-0.495,-0.060
2679,-0.480,-0.120
2680,-0.565,-0.165
2681,-0.650,-0.150
2682,-0.675,-0.110
2683,-0.585,-0.095
2684,-0.520,-0.115
2685,-0.470,-0.135
2686,-0.505,-0.125
2687,-0.540,-0.095
2688,-0.530,-0.090
2689,-0.520,-0.095
2690,-0.510,-0.125
2691,-0.475,-0.135
2692,-0.460,-0.150
2693,-0.465,-0.110
2694,-0.480,-0.070
2695,-0.460,-0.050
2696,-0.410,-0.070
2697,-0.350,-0.060
2698,-0.280,-0.075
2699,-0.195,-0.055
2700,-0.185,-0.025
2701,-0.295,-0.015
2702,-0.395,-0.035
2703,-0.375,-0.090
2704,-0.295,-0.115
2705,-0.200,-0.125
2706,-0.225,-0.125
2707,-0.380,-0.140
2708,-0.555,-0.145
2709,-0.645,-0.130
2710,-0.600,-0.105
2711,-0.515,-0.065
2712,-0.450,-0.025
2713,-0.395,-0.015
2714,-0.350,0.000
2715,-0.310,-0.005
2716,-0.325,0.010
2717,-0.315,0.045
2718,-0.310,0.070
2719,-0.290,0.080
2720,-0.270,0.060
2721,-0.235,0.055
2722,-0.180,0.040
2723,-0.140,0.080
2724,-0.125,0.090
2725,-0.130,0.090
2726,-0.130,0.090
2727,-0.135,0.090
2728,-0.140,0.095
2729,-0.115,0.095
2730,-0.035,0.095
2731,0.055,0.100
2732,0.115,0.065
2733,0.085,0.035
2734,0.000,0.060
2735,-0.065,0.095
2736,-0.125,0.135
2737,-0.195,0.145
2738,-0.230,0.150
2739,-0.180,0.115
2740,-0.085,0.090
2741,0.015,0.090
2742,0.065,0.075
2743,0.060,0.055
2744,0.025,0.015
2745,0.010,0.000
2746,-0.005,-0.010
2747,0.045,-0.015
2748,0.130,-0.045
2749,0.090,-0.100
2750,-0.080,-0.120
2751,-0.280,-0.160
2752,-0.350,-0.155
2753,-0.305,-0.130
2754,-0.235,-0.110
2755,-0.250,-0.120
2756,-0.310,-0.150
2757,-0.300,-0.175
2758,-0.225,-0.200
2759,-0.125,-0.230
2760,-0.085,-0.195
2761,-0.055,-0.200
2762,-0.035,-0.200
2763,-0.040,-0.190
2764,-0.065,-0.155
2765,-0.050,-0.120
2766,-0.005,-0.075
2767,0.015,-0.055
2768,-0.025,-0.025
2769,-0.095,0.005
2770,-0.105,0.065
2771,0.010,0.110
2772,0.145,0.175
2773,0.230,0.205
2774,0.250,0.200
2775,0.210,0.160
2776,0.165,0.110
2777,0.065,0.085
2778,-0.050,0.060
2779,-0.130,0.040
2780,-0.180,0.045
2781,-0.160,0.020
2782,-0.135,0.035
2783,-0.030,0.080
2784,0.205,0.110
2785,0.490,0.100
2786,0.705,0.040
2787,0.830,-0.035
2788,0.885,-0.120
2789,0.980,-0.120
2790,1.100,-0.105
2791,1.205,-0.120
2792,1.290,-0.185
2793,1.295,-0.295
2794,1.175,-0.405
2795,1.015,-0.490
2796,0.935,-0.530
2797,0.870,-0.550
2798,0.700,-0.520
2799,0.340,-0.470
2800,-0.095,-0.375
2801,-0.340,-0.250
2802,-0.370,-0.185
2803,-0.310,-0.130
2804,-0.310,-0.125
2805,-0.370,-0.110
2806,-0.460,-0.095
2807,-0.445,-0.070
2808,-0.410,-0.065
2809,-0.370,-0.075
2810,-0.330,-0.095
2811,-0.305,-0.080
2812,-0.350,-0.010
2813,-0.480,0.065
2814,-0.555,0.125
2815,-0.510,0.115
2816,-0.360,0.020
2817,-0.275,-0.125
2818,-0.335,-0.240
2819,-0.580,-0.285
2820,-0.890,-0.290
2821,-0.960,-0.235
2822,-0.725,-0.200
2823,-0.420,-0.140
2824,-0.330,-0.070
2825,-0.460,-0.055
2826,-0.480,-0.045
2827,-0.375,-0.060
2828,-0.425,-0.110
2829,-0.650,-0.110
2830,-0.820,-0.080
2831,-0.800,-0.020
2832,-0.645,0.025
2833,-0.500,0.030
2834,-0.475,0.040
2835,-0.540,0.030
2836,-0.555,0.050
2837,-0.490,0.080
2838,-0.410,0.080
2839,-0.425,0.050
2840,-0.505,0.045
2841,-0.550,0.015
2842,-0.635,0.035
2843,-0.715,0.045
2844,-0.660,0.100
2845,-0.560,0.105
2846,-0.520,0.105
2847,-0.540,0.120
2848,-0.585,0.120
2849,-0.530,0.140
2850,-0.390,0.130
2851,-0.200,0.100
2852,-0.110,0.075
2853,-0.190,0.065
2854,-0.375,0.085
2855,-0.515,0.100
2856,-0.545,0.140
2857,-0.460,0.140
2858,-0.440,0.125
2859,-0.455,0.120
2860,-0.400,0.120
2861,-0.315,0.110
2862,-0.225,0.115
2863,-0.185,0.095
2864,-0.265,0.075
2865,-0.365,0.065
2866,-0.415,0.060
2867,-0.285,0.095
2868,-0.055,0.100
2869,0.085,0.045
2870,-0.030,-0.030
2871,-0.180,-0.135
2872,-0.180,-0.175
2873,-0.075,-0.170
2874,0.000,-0.135
2875,0.075,-0.105
2876,0.065,-0.095
2877,-0.080,-0.090
2878,-0.285,-0.065
2879,-0.435,-0.010
2880,-0.390,0.050
2881,-0.165,0.070
2882,-0.030,0.065
2883,-0.165,0.060
2884,-0.395,0.070
2885,-0.460,0.095
2886,-0.370,0.080
2887,-0.275,0.055
2888,-0.280,0.020
2889,-0.320,0.015
2890,-0.310,0.025
2891,-0.200,0.075
2892,-0.120,0.125
2893,-0.130,0.175
2894,-0.185,0.200
2895,-0.220,0.190
2896,-0.170,0.170
2897,-0.100,0.135
2898,-0.025,0.095
2899,-0.045,0.065
2900,-0.295,0.005
2901,-0.595,-0.005
2902,-0.720,0.030
2903,-0.535,0.070
2904,-0.270,0.105
2905,-0.115,0.110
2906,-0.145,0.095
2907,-0.300,0.105
2908,-0.475,0.100
2909,-0.510,0.090
2910,-0.435,0.090
2911,-0.340,0.070
2912,-0.305,0.055
2913,-0.305,0.060
2914,-0.255,0.075
2915,-0.120,0.105
2916,-0.015,0.130
2917,-0.010,0.125
2918,-0.110,0.125
2919,-0.200,0.120
2920,-0.245,0.145
2921,-0.150,0.175
2922,0.085,0.195
2923,0.285,0.170
2924,0.350,0.135
2925,0.380,0.080
2926,0.500,0.030
2927,0.700,-0.040
2928,0.870,-0.105
2929,1.010,-0.200
2930,1.155,-0.270
2931,1.280,-0.310
2932,1.315,-0.350
2933,1.340,-0.385
2934,1.330,-0.430
2935,1.230,-0.480
2936,1.065,-0.510
2937,0.950,-0.530
2938,0.900,-0.540
2939,0.800,-0.520
2940,0.495,-0.450
2941,0.005,-0.395
2942,-0.440,-0.330
2943,-0.665,-0.255
2944,-0.660,-0.175
2945,-0.575,-0.105
2946,-0.550,-0.040
2947,-0.580,-0.025
2948,-0.675,0.005
2949,-0.780,0.050
2950,-0.890,0.065
2951,-0.990,0.110
2952,-1.025,0.140
2953,-0.970,0.155
2954,-0.870,0.130
2955,-0.810,0.130
2956,-0.795,0.135
2957,-0.775,0.125
2958,-0.765,0.135
2959,-0.760,0.135
2960,-0.810,0.100
2961,-0.850,0.080
2962,-0.890,0.080
2963,-0.905,0.105
2964,-0.895,0.130
2965,-0.850,0.110
2966,-0.775,0.095
2967,-0.720,0.085
2968,-0.680,0.095
2969,-0.675,0.120
2970,-0.745,0.145
2971,-0.875,0.170
2972,-0.905,0.145
2973,-0.765,0.110
2974,-0.475,0.065
2975,-0.320,0.040
2976,-0.500,0.045
2977,-0.885,0.075
2978,-1.150,0.095
2979,-1.090,0.095
2980,-0.875,0.095
2981,-0.675,0.045
2982,-0.635,0.010
2983,-0.670,-0.030
2984,-0.705,-0.060
2985,-0.725,-0.060
2986,-0.835,-0.040
2987,-0.945,0.010
2988,-0.990,0.050
2989,-0.975,0.075
2990,-0.875,0.095
2991,-0.775,0.095
2992,-0.745,0.125
2993,-0.735,0.140
2994,-0.710,0.155
2995,-0.665,0.155
2996,-0.620,0.165
2997,-0.610,0.160
2998,-0.580,0.145
2999,-0.475,0.175
3000,-0.305,0.180
3001,-0.215,0.185
3002,-0.355,0.190
3003,-0.570,0.210
3004,-0.695,0.250
3005,-0.690,0.330
3006,-0.690,0.370
3007,-0.715,0.370
3008,-0.635,0.310
3009,-0.395,0.215
3010,-0.230,0.140
3011,-0.315,0.105
3012,-0.490,0.095
3013,-0.575,0.095
3014,-0.580,0.110
3015,-0.545,0.105
3016,-0.535,0.130
3017,-0.495,0.145
3018,-0.460,0.170
3019,-0.465,0.155
3020,-0.560,0.145
3021,-0.655,0.130
3022,-0.685,0.130
3023,-0.640,0.150
3024,-0.600,0.170
3025,-0.600,0.150
3026,-0.615,0.140
3027,-0.625,0.130
3028,-0.625,0.125
3029,-0.595,0.150
3030,-0.560,0.155
3031,-0.530,0.160
3032,-0.535,0.150
3033,-0.555,0.155
3034,-0.540,0.170
3035,-0.460,0.200
3036,-0.330,0.240
3037,-0.285,0.220
3038,-0.430,0.200
3039,-0.690,0.175
3040,-0.905,0.160
3041,-0.975,0.155
3042,-0.875,0.135
3043,-0.735,0.105
3044,-0.660,0.085
3045,-0.630,0.075
3046,-0.590,0.085
3047,-0.500,0.130
3048,-0.420,0.165
3049,-0.410,0.185
3050,-0.520,0.190
3051,-0.620,0.195
3052,-0.685,0.215
3053,-0.625,0.205
3054,-0.530,0.200
3055,-0.555,0.180
3056,-0.665,0.160
3057,-0.815,0.180
3058,-0.885,0.205
3059,-0.895,0.230
3060,-0.820,0.240
3061,-0.720,0.245
3062,-0.665,0.225
3063,-0.635,0.230
3064,-0.640,0.265
3065,-0.630,0.275
3066,-0.595,0.255
3067,-0.570,0.180
3068,-0.565,0.090
3069,-0.575,0.015
3070,-0.595,-0.005
3071,-0.600,0.010
3072,-0.585,0.030
3073,-0.575,0.040
3074,-0.570,0.045
3075,-0.585,0.035
3076,-0.575,0.060
3077,-0.555,0.090
3078,-0.520,0.110
3079,-0.500,0.110
3080,-0.490,0.115
3081,-0.450,0.100
3082,-0.415,0.120
3083,-0.435,0.155
3084,-0.580,0.165
3085,-0.715,0.140
3086,-0.765,0.105
3087,-0.735,0.080
3088,-0.690,0.075
3089,-0.690,0.160
3090,-0.715,0.200
3091,-0.630,0.230
3092,-0.530,0.245
3093,-0.485,0.220
3094,-0.590,0.180
3095,-0.780,0.180
3096,-0.860,0.150
3097,-0.835,0.125
3098,-0.750,0.090
3099,-0.670,0.065
3100,-0.635,0.090
3101,-0.630,0.125
3102,-0.630,0.145
3103,-0.660,0.140
3104,-0.675,0.130
3105,-0.630,0.115
3106,-0.575,0.140
3107,-0.575,0.175
3108,-0.580,0.195
3109,-0.520,0.205
3110,-0.410,0.200
3111,-0.305,0.205
3112,-0.265,0.230
3113,-0.260,0.320
3114,-0.140,0.390
3115,0.055,0.440
3116,0.190,0.465
3117,0.225,0.415
3118,0.145,0.325
3119,0.070,0.245
3120,0.220,0.160
3121,0.585,0.070
3122,0.995,-0.020
3123,1.280,-0.115
3124,1.395,-0.170
3125,1.330,-0.230
3126,1.140,-0.245
3127,1.030,-0.240
3128,1.050,-0.245
3129,1.140,-0.245
3130,1.225,-0.265
3131,1.255,-0.345
3132,1.090,-0.400
3133,0.805,-0.470
3134,0.545,-0.490
3135,0.325,-0.495
3136,0.130,-0.455
3137,-0.125,-0.375
3138,-0.350,-0.285
3139,-0.490,-0.195
3140,-0.570,-0.145
3141,-0.625,-0.085
3142,-0.690,-0.030
3143,-0.695,0.050
3144,-0.665,0.130
3145,-0.670,0.190
3146,-0.700,0.210
3147,-0.790,0.190
3148,-0.900,0.195
3149,-0.890,0.150
3150,-0.745,0.100
3151,-0.535,0.015
3152,-0.370,-0.030
3153,-0.280,-0.065
3154,-0.370,-0.040
3155,-0.710,0.035
3156,-1.065,0.105
3157,-1.160,0.160
3158,-1.060,0.175
3159,-0.885,0.145
3160,-0.685,0.135
3161,-0.590,0.115
3162,-0.635,0.120
3163,-0.790,0.125
3164,-0.985,0.140
3165,-1.125,0.165
3166,-1.160,0.180
3167,-1.090,0.205
3168,-0.950,0.220
3169,-0.840,0.190
3170,-0.840,0.165
3171,-0.890,0.140
3172,-0.875,0.130
3173,-0.840,0.130
3174,-0.795,0.160
3175,-0.745,0.160
3176,-0.710,0.165
3177,-0.680,0.160
3178,-0.665,0.155
3179,-0.655,0.155
3180,-0.655,0.115
3181,-0.670,0.065
3182,-0.695,0.000
3183,-0.685,-0.030
3184,-0.655,-0.025
3185,-0.630,0.035
3186,-0.620,0.075
3187,-0.595,0.095
3188,-0.625,0.125
3189,-0.675,0.145
3190,-0.675,0.190
3191,-0.540,0.220
3192,-0.350,0.230
3193,-0.225,0.190
3194,-0.395,0.135
3195,-0.850,0.135
3196,-1.145,0.155
3197,-1.005,0.210
3198,-0.685,0.250
3199,-0.495,0.260
3200,-0.490,0.250
3201,-0.520,0.240
3202,-0.540,0.255
3203,-0.505,0.250
3204,-0.460,0.270
3205,-0.400,0.255
3206,-0.375,0.230
3207,-0.385,0.210
3208,-0.425,0.215
3209,-0.405,0.220
3210,-0.375,0.245
3211,-0.365,0.255
3212,-0.420,0.265
3213,-0.450,0.280
3214,-0.450,0.325
3215,-0.440,0.375
3216,-0.435,0.385
3217,-0.410,0.395
3218,-0.390,0.320
3219,-0.390,0.205
3220,-0.425,0.115
3221,-0.415,0.050
3222,-0.325,0.010
3223,-0.235,-0.020
3224,-0.250,-0.035
3225,-0.335,-0.065
3226,-0.410,-0.065
3227,-0.345,-0.040
3228,-0.205,0.010
3229,-0.140,0.020
3230,-0.125,0.020
3231,-0.120,0.020
3232,-0.190,0.010
3233,-0.370,0.025
3234,-0.485,0.055
3235,-0.435,0.070
3236,-0.340,0.065
3237,-0.305,0.050
3238,-0.310,0.055
3239,-0.310,0.075
3240,-0.250,0.105
3241,-0.165,0.145
3242,-0.150,0.195
3243,-0.170,0.235
3244,-0.205,0.240
3245,-0.240,0.255
3246,-0.360,0.250
3247,-0.490,0.170
3248,-0.565,0.095
3249,-0.515,0.030
3250,-0.435,0.005
3251,-0.395,0.010
3252,-0.425,0.025
3253,-0.410,0.055
3254,-0.380,0.055
3255,-0.345,0.050
3256,-0.355,0.070
3257,-0.355,0.085
3258,-0.315,0.105
3259,-0.230,0.125
3260,-0.155,0.110
3261,-0.170,0.105
3262,-0.275,0.110
3263,-0.350,0.145
3264,-0.395,0.175
3265,-0.370,0.215
3266,-0.370,0.215
3267,-0.460,0.215
3268,-0.490,0.220
3269,-0.425,0.235
3270,-0.365,0.230
3271,-0.320,0.225
3272,-0.335,0.220
3273,-0.350,0.220
3274,-0.335,0.230
3275,-0.270,0.210
3276,-0.235,0.165
3277,-0.230,0.065
3278,-0.235,-0.055
3279,-0.265,-0.155
3280,-0.250,-0.185
3281,-0.145,-0.170
3282,-0.035,-0.130
3283,0.050,-0.115
3284,0.035,-0.095
3285,-0.005,-0.105
3286,-0.055,-0.070
3287,-0.115,-0.030
3288,-0.255,0.025
3289,-0.410,0.075
3290,-0.525,0.105
3291,-0.500,0.115
3292,-0.450,0.130
3293,-0.385,0.125
3294,-0.335,0.110
3295,-0.250,0.070
3296,-0.185,0.035
3297,-0.175,-0.005
3298,-0.170,0.000
3299,-0.165,0.015
3300,-0.180,0.015
3301,-0.185,0.010
3302,-0.195,-0.015
3303,-0.185,-0.020
3304,-0.205,-0.005
3305,-0.205,0.035
3306,-0.200,0.060
3307,-0.180,0.080
3308,-0.210,0.085
3309,-0.240,0.095
3310,-0.215,0.115
3311,-0.170,0.160
3312,-0.160,0.170
3313,-0.170,0.135
3314,-0.140,0.085
3315,-0.105,0.020
3316,-0.070,0.015
3317,-0.015,0.025
3318,0.075,0.040
3319,0.200,0.085
3320,0.345,0.105
3321,0.385,0.120
3322,0.415,0.135
3323,0.490,0.130
3324,0.665,0.105
3325,0.910,0.065
3326,1.175,0.015
3327,1.450,-0.055
3328,1.575,-0.100
3329,1.575,-0.155
3330,1.545,-0.190
3331,1.595,-0.235
3332,1.715,-0.300
3333,1.765,-0.370
3334,1.690,-0.435
3335,1.640,-0.515
3336,1.595,-0.585
3337,1.520,-0.655
3338,1.375,-0.665
3339,1.150,-0.655
3340,0.865,-0.600
3341,0.610,-0.500
3342,0.430,-0.380
3343,0.330,-0.315
3344,0.220,-0.270
3345,0.020,-0.240
3346,-0.235,-0.215
3347,-0.440,-0.180
3348,-0.445,-0.155
3349,-0.290,-0.150
3350,-0.175,-0.160
3351,-0.215,-0.155
3352,-0.370,-0.135
3353,-0.445,-0.090
3354,-0.450,-0.060
3355,-0.490,-0.020
3356,-0.610,0.000
3357,-0.705,0.025
3358,-0.690,0.045
3359,-0.645,0.080
3360,-0.595,0.110
3361,-0.575,0.135
3362,-0.565,0.160
3363,-0.560,0.220
3364,-0.485,0.260
3365,-0.415,0.250
3366,-0.385,0.220
3367,-0.435,0.135
3368,-0.490,0.025
3369,-0.450,-0.045
3370,-0.390,-0.065
3371,-0.420,-0.035
3372,-0.505,0.015
3373,-0.545,0.040
3374,-0.455,0.075
3375,-0.395,0.120
3376,-0.480,0.155
3377,-0.600,0.170
3378,-0.580,0.150
3379,-0.455,0.090
3380,-0.505,-0.010
3381,-0.665,-0.085
3382,-0.745,-0.125
3383,-0.695,-0.140
3384,-0.575,-0.125
3385,-0.465,-0.100
3386,-0.400,-0.110
3387,-0.390,-0.100
3388,-0.390,-0.090
3389,-0.385,-0.045
3390,-0.340,-0.035
3391,-0.265,-0.025
3392,-0.275,-0.025
3393,-0.365,-0.030
3394,-0.410,0.005
3395,-0.340,0.035
3396,-0.230,0.070
3397,-0.130,0.065
3398,-0.055,0.055
3399,-0.035,-0.005
3400,-0.065,-0.015
3401,-0.095,-0.005
3402,-0.085,0.060
3403,-0.105,0.105
3404,-0.195,0.115
3405,-0.230,0.110
3406,-0.185,0.110
3407,-0.105,0.105
3408,-0.040,0.085
3409,-0.025,0.065
3410,-0.090,0.030
3411,-0.170,0.005
3412,-0.155,0.020
3413,-0.110,0.040
3414,-0.110,0.075
3415,-0.130,0.090
3416,-0.170,0.090
3417,-0.175,0.105
3418,-0.150,0.110
3419,-0.125,0.125
3420,-0.100,0.130
3421,-0.060,0.115
3422,0.045,0.090
3423,0.095,0.060
3424,0.015,0.060
3425,-0.170,0.085
3426,-0.275,0.100
3427,-0.260,0.095
3428,-0.130,0.070
3429,0.010,0.045
3430,-0.010,0.040
3431,-0.175,0.060
3432,-0.285,0.060
3433,-0.295,0.075
3434,-0.290,0.075
3435,-0.315,0.065
3436,-0.325,0.080
3437,-0.285,0.090
3438,-0.195,0.095
3439,-0.130,0.090
3440,-0.150,0.070
3441,-0.190,0.050
3442,-0.195,0.065
3443,-0.160,0.075
3444,-0.095,0.095
3445,0.005,0.100
3446,0.070,0.105
3447,0.070,0.120
3448,-0.030,0.160
3449,-0.100,0.205
3450,-0.095,0.235
3451,0.005,0.250
3452,0.070,0.245
3453,0.110,0.215
3454,0.150,0.215
3455,0.280,0.180
3456,0.500,0.140
3457,0.780,0.065
3458,1.085,0.000
3459,1.305,-0.055
3460,1.495,-0.065
3461,1.625,-0.075
3462,1.615,-0.115
3463,1.530,-0.195
3464,1.390,-0.275
3465,1.270,-0.355
3466,1.210,-0.420
3467,1.180,-0.430
3468,1.065,-0.425
3469,0.930,-0.390
3470,0.815,-0.345
3471,0.725,-0.280
3472,0.600,-0.220
3473,0.415,-0.190
3474,0.235,-0.195
3475,0.085,-0.205
3476,-0.065,-0.215
3477,-0.280,-0.210
3478,-0.485,-0.165
3479,-0.515,-0.105
3480,-0.460,-0.050
3481,-0.400,-0.040
3482,-0.395,-0.050
3483,-0.430,-0.040
3484,-0.460,-0.015
3485,-0.475,0.010
3486,-0.450,0.030
3487,-0.445,0.030
3488,-0.495,0.030
3489,-0.530,0.025
3490,-0.555,0.040
3491,-0.555,0.060
3492,-0.510,0.090
3493,-0.495,0.105
3494,-0.450,0.120
3495,-0.415,0.120
3496,-0.430,0.155
3497,-0.495,0.180
3498,-0.575,0.220
3499,-0.590,0.190
3500,-0.555,0.170
3501,-0.500,0.135
3502,-0.415,0.155
3503,-0.320,0.155
3504,-0.345,0.170
3505,-0.540,0.200
3506,-0.765,0.220
3507,-0.855,0.240
3508,-0.770,0.270
3509,-0.635,0.275
3510,-0.560,0.260
3511,-0.525,0.210
3512,-0.495,0.160
3513,-0.460,0.110
3514,-0.460,0.095
3515,-0.440,0.120
3516,-0.425,0.155
3517,-0.385,0.165
3518,-0.370,0.140
3519,-0.355,0.115
3520,-0.365,0.105
3521,-0.335,0.095
3522,-0.305,0.110
3523,-0.265,0.075
3524,-0.260,0.055
3525,-0.235,0.015
3526,-0.230,0.020
3527,-0.205,0.045
3528,-0.170,0.060
3529,-0.150,0.040
3530,-0.125,0.035
3531,-0.140,0.020
3532,-0.150,0.015
3533,-0.105,0.040
3534,-0.065,0.055
3535,-0.035,0.055
3536,-0.030,0.030
3537,0.000,0.030
3538,0.010,0.025
3539,0.010,0.035
3540,-0.010,0.075
3541,-0.060,0.065
3542,-0.115,0.070
3543,-0.160,0.085
3544,-0.180,0.085
3545,-0.165,0.115
3546,-0.140,0.155
3547,-0.120,0.150
3548,-0.165,0.150
3549,-0.195,0.130
3550,-0.215,0.150
3551,-0.185,0.175
3552,-0.175,0.180
3553,-0.170,0.185
3554,-0.150,0.165
3555,-0.110,0.165
3556,-0.115,0.185
3557,-0.190,0.200
3558,-0.260,0.235
3559,-0.285,0.240
3560,-0.285,0.235
3561,-0.305,0.230
3562,-0.305,0.245
3563,-0.270,0.245
3564,-0.250,0.260
3565,-0.265,0.260
3566,-0.260,0.225
3567,-0.245,0.210
3568,-0.235,0.195
3569,-0.235,0.215
3570,-0.215,0.215
3571,-0.195,0.210
3572,-0.205,0.190
3573,-0.230,0.160
3574,-0.240,0.155
3575,-0.225,0.150
3576,-0.185,0.135
3577,-0.145,0.110
3578,-0.135,0.065
3579,-0.175,0.045
3580,-0.225,0.015
3581,-0.230,0.015
3582,-0.220,0.010
3583,-0.190,-0.015
3584,-0.175,-0.025
3585,-0.190,-0.030
3586,-0.195,-0.020
3587,-0.180,0.010
3588,-0.165,0.035
3589,-0.170,0.025
3590,-0.170,0.020
3591,-0.170,-0.005
3592,-0.175,0.010
3593,-0.195,0.030
3594,-0.160,0.055
3595,-0.130,0.040
3596,-0.105,0.025
3597,-0.125,0.010
3598,-0.165,0.020
3599,-0.175,0.025
