0,-0.430,-0.540
1,-0.430,-0.540
2,-0.430,-0.540
3,-0.430,-0.540
4,-0.430,-0.540
5,-0.430,-0.540
6,-0.430,-0.540
7,-0.430,-0.540
8,-0.450,-0.550
9,-0.460,-0.535
10,-0.465,-0.525
11,-0.460,-0.530
12,-0.460,-0.505
13,-0.445,-0.510
14,-0.445,-0.510
15,-0.455,-0.505
16,-0.470,-0.515
17,-0.470,-0.520
18,-0.465,-0.540
19,-0.475,-0.530
20,-0.480,-0.535
21,-0.480,-0.520
22,-0.470,-0.525
23,-0.465,-0.520
24,-0.470,-0.515
25,-0.460,-0.515
26,-0.445,-0.510
27,-0.455,-0.510
28,-0.465,-0.515
29,-0.460,-0.520
30,-0.470,-0.545
31,-0.465,-0.540
32,-0.475,-0.535
33,-0.480,-0.530
34,-0.460,-0.535
35,-0.450,-0.515
36,-0.445,-0.515
37,-0.440,-0.510
38,-0.435,-0.515
39,-0.430,-0.525
40,-0.440,-0.535
41,-0.445,-0.540
42,-0.450,-0.545
43,-0.440,-0.550
44,-0.445,-0.550
45,-0.465,-0.540
46,-0.445,-0.535
47,-0.435,-0.540
48,-0.430,-0.515
49,-0.430,-0.515
50,-0.425,-0.525
51,-0.425,-0.525
52,-0.425,-0.535
53,-0.420,-0.550
54,-0.440,-0.545
55,-0.450,-0.560
56,-0.440,-0.550
57,-0.440,-0.555
58,-0.435,-0.550
59,-0.420,-0.545
60,-0.415,-0.540
61,-0.415,-0.535
62,-0.410,-0.535
63,-0.400,-0.550
64,-0.405,-0.550
65,-0.415,-0.565
66,-0.415,-0.560
67,-0.425,-0.565
68,-0.425,-0.565
69,-0.425,-0.570
70,-0.410,-0.565
71,-0.410,-0.550
72,-0.400,-0.550
73,-0.390,-0.545
74,-0.390,-0.555
75,-0.395,-0.560
76,-0.395,-0.570
77,-0.395,-0.575
78,-0.405,-0.585
79,-0.410,-0.585
80,-0.405,-0.595
81,-0.405,-0.580
82,-0.400,-0.575
83,-0.395,-0.580
84,-0.385,-0.570
85,-0.370,-0.565
86,-0.365,-0.575
87,-0.355,-0.575
88,-0.365,-0.595
89,-0.355,-0.595
90,-0.355,-0.615
91,-0.360,-0.605
92,-0.360,-0.615
93,-0.360,-0.615
94,-0.345,-0.605
95,-0.330,-0.595
96,-0.325,-0.590
97,-0.310,-0.590
98,-0.310,-0.600
99,-0.300,-0.590
100,-0.315,-0.610
101,-0.320,-0.605
102,-0.325,-0.630
103,-0.330,-0.610
104,-0.340,-0.610
105,-0.355,-0.610
106,-0.350,-0.595
107,-0.355,-0.585
108,-0.355,-0.575
109,-0.355,-0.565
110,-0.355,-0.580
111,-0.360,-0.560
112,-0.370,-0.565
113,-0.390,-0.575
114,-0.390,-0.590
115,-0.405,-0.565
116,-0.415,-0.565
117,-0.420,-0.560
118,-0.420,-0.545
119,-0.425,-0.545
120,-0.415,-0.540
121,-0.420,-0.535
122,-0.420,-0.535
123,-0.410,-0.535
124,-0.415,-0.535
125,-0.425,-0.545
126,-0.435,-0.545
127,-0.440,-0.555
128,-0.440,-0.550
129,-0.440,-0.545
130,-0.445,-0.550
131,-0.435,-0.530
132,-0.445,-0.525
133,-0.435,-0.520
134,-0.420,-0.515
135,-0.435,-0.520
136,-0.445,-0.530
137,-0.445,-0.530
138,-0.450,-0.545
139,-0.460,-0.550
140,-0.455,-0.545
141,-0.460,-0.535
142,-0.450,-0.530
143,-0.455,-0.525
144,-0.445,-0.510
145,-0.440,-0.515
146,-0.440,-0.505
147,-0.435,-0.510
148,-0.445,-0.520
149,-0.455,-0.535
150,-0.460,-0.535
151,-0.460,-0.535
152,-0.470,-0.535
153,-0.475,-0.535
154,-0.475,-0.530
155,-0.470,-0.525
156,-0.460,-0.510
157,-0.450,-0.515
158,-0.465,-0.515
159,-0.445,-0.525
160,-0.450,-0.525
161,-0.450,-0.535
162,-0.465,-0.545
163,-0.465,-0.545
164,-0.470,-0.530
165,-0.475,-0.530
166,-0.460,-0.530
167,-0.455,-0.520
168,-0.435,-0.515
169,-0.425,-0.510
170,-0.405,-0.500
171,-0.400,-0.505
172,-0.400,-0.510
173,-0.410,-0.520
174,-0.415,-0.520
175,-0.410,-0.520
176,-0.415,-0.520
177,-0.410,-0.520
178,-0.395,-0.515
179,-0.385,-0.510
180,-0.365,-0.520
181,-0.345,-0.520
182,-0.355,-0.540
183,-0.370,-0.560
184,-0.385,-0.570
185,-0.410,-0.585
186,-0.435,-0.580
187,-0.430,-0.575
188,-0.435,-0.570
189,-0.450,-0.555
190,-0.430,-0.560
191,-0.430,-0.560
192,-0.435,-0.545
193,-0.435,-0.535
194,-0.430,-0.530
195,-0.450,-0.530
196,-0.455,-0.535
197,-0.470,-0.540
198,-0.490,-0.530
199,-0.515,-0.535
200,-0.520,-0.530
201,-0.520,-0.525
202,-0.515,-0.520
203,-0.520,-0.515
204,-0.510,-0.510
205,-0.505,-0.500
206,-0.490,-0.505
207,-0.490,-0.505
208,-0.500,-0.505
209,-0.495,-0.520
210,-0.505,-0.530
211,-0.525,-0.535
212,-0.505,-0.535
213,-0.510,-0.530
214,-0.500,-0.515
215,-0.500,-0.515
216,-0.510,-0.495
217,-0.525,-0.500
218,-0.550,-0.490
219,-0.555,-0.490
220,-0.545,-0.495
221,-0.500,-0.515
222,-0.420,-0.540
223,-0.315,-0.590
224,-0.165,-0.625
225,0.000,-0.680
226,0.220,-0.735
227,0.430,-0.765
228,0.620,-0.780
229,0.735,-0.755
230,0.720,-0.740
231,0.570,-0.690
232,0.320,-0.635
233,0.015,-0.560
234,-0.250,-0.505
235,-0.430,-0.470
236,-0.515,-0.455
237,-0.510,-0.475
238,-0.450,-0.510
239,-0.395,-0.535
240,-0.360,-0.545
241,-0.330,-0.560
242,-0.345,-0.550
243,-0.370,-0.535
244,-0.420,-0.530
245,-0.440,-0.520
246,-0.470,-0.530
247,-0.480,-0.535
248,-0.485,-0.520
249,-0.480,-0.515
250,-0.465,-0.515
251,-0.475,-0.510
252,-0.465,-0.500
253,-0.470,-0.490
254,-0.470,-0.495
255,-0.470,-0.500
256,-0.465,-0.505
257,-0.475,-0.510
258,-0.480,-0.525
259,-0.485,-0.520
260,-0.490,-0.525
261,-0.480,-0.505
262,-0.485,-0.505
263,-0.475,-0.500
264,-0.465,-0.500
265,-0.460,-0.485
266,-0.455,-0.490
267,-0.455,-0.495
268,-0.460,-0.510
269,-0.460,-0.515
270,-0.470,-0.520
271,-0.475,-0.520
272,-0.470,-0.520
273,-0.470,-0.510
274,-0.470,-0.510
275,-0.465,-0.500
276,-0.470,-0.505
277,-0.460,-0.500
278,-0.455,-0.500
279,-0.455,-0.505
280,-0.465,-0.500
281,-0.465,-0.515
282,-0.480,-0.525
283,-0.480,-0.530
284,-0.490,-0.520
285,-0.475,-0.520
286,-0.465,-0.515
287,-0.455,-0.515
288,-0.455,-0.515
289,-0.445,-0.515
290,-0.450,-0.515
291,-0.440,-0.520
292,-0.440,-0.525
293,-0.440,-0.535
294,-0.445,-0.545
295,-0.455,-0.540
296,-0.455,-0.540
297,-0.455,-0.535
298,-0.455,-0.545
299,-0.440,-0.545
300,-0.440,-0.535
301,-0.425,-0.530
302,-0.420,-0.530
303,-0.415,-0.540
304,-0.420,-0.555
305,-0.425,-0.555
306,-0.440,-0.560
307,-0.445,-0.565
308,-0.445,-0.560
309,-0.460,-0.560
310,-0.450,-0.570
311,-0.440,-0.555
312,-0.425,-0.550
313,-0.405,-0.540
314,-0.410,-0.545
315,-0.415,-0.540
316,-0.415,-0.565
317,-0.405,-0.560
318,-0.425,-0.570
319,-0.420,-0.580
320,-0.415,-0.575
321,-0.400,-0.585
322,-0.380,-0.570
323,-0.370,-0.585
324,-0.360,-0.580
325,-0.355,-0.575
326,-0.345,-0.575
327,-0.340,-0.575
328,-0.340,-0.585
329,-0.340,-0.600
330,-0.345,-0.595
331,-0.340,-0.600
332,-0.350,-0.600
333,-0.350,-0.595
334,-0.350,-0.590
335,-0.345,-0.590
336,-0.345,-0.570
337,-0.325,-0.565
338,-0.330,-0.570
339,-0.335,-0.560
340,-0.340,-0.570
341,-0.360,-0.570
342,-0.380,-0.585
343,-0.385,-0.585
344,-0.405,-0.575
345,-0.410,-0.565
346,-0.400,-0.560
347,-0.415,-0.550
348,-0.405,-0.540
349,-0.410,-0.540
350,-0.405,-0.535
351,-0.410,-0.525
352,-0.415,-0.535
353,-0.410,-0.540
354,-0.420,-0.545
355,-0.435,-0.550
356,-0.440,-0.545
357,-0.450,-0.540
358,-0.455,-0.530
359,-0.450,-0.520
360,-0.445,-0.510
361,-0.440,-0.500
362,-0.440,-0.505
363,-0.435,-0.505
364,-0.440,-0.520
365,-0.445,-0.520
366,-0.445,-0.530
367,-0.455,-0.530
368,-0.465,-0.535
369,-0.460,-0.535
370,-0.460,-0.515
371,-0.450,-0.515
372,-0.445,-0.505
373,-0.440,-0.495
374,-0.450,-0.495
375,-0.440,-0.500
376,-0.440,-0.505
377,-0.445,-0.515
378,-0.450,-0.520
379,-0.455,-0.530
380,-0.465,-0.535
381,-0.460,-0.525
382,-0.460,-0.515
383,-0.465,-0.515
384,-0.455,-0.495
385,-0.460,-0.495
386,-0.460,-0.505
387,-0.450,-0.500
388,-0.460,-0.510
389,-0.470,-0.510
390,-0.480,-0.515
391,-0.485,-0.525
392,-0.480,-0.530
393,-0.485,-0.515
394,-0.490,-0.510
395,-0.480,-0.500
396,-0.470,-0.490
397,-0.465,-0.495
398,-0.470,-0.495
399,-0.465,-0.485
400,-0.465,-0.495
401,-0.470,-0.500
402,-0.465,-0.505
403,-0.470,-0.510
404,-0.470,-0.515
405,-0.465,-0.510
406,-0.450,-0.500
407,-0.440,-0.490
408,-0.430,-0.480
409,-0.415,-0.470
410,-0.410,-0.470
411,-0.405,-0.470
412,-0.410,-0.475
413,-0.405,-0.475
414,-0.405,-0.490
415,-0.400,-0.495
416,-0.400,-0.495
417,-0.390,-0.500
418,-0.385,-0.515
419,-0.385,-0.525
420,-0.395,-0.515
421,-0.410,-0.530
422,-0.415,-0.525
423,-0.430,-0.515
424,-0.430,-0.535
425,-0.435,-0.530
426,-0.445,-0.535
427,-0.455,-0.535
428,-0.450,-0.530
429,-0.455,-0.530
430,-0.445,-0.520
431,-0.440,-0.510
432,-0.450,-0.505
433,-0.445,-0.495
434,-0.470,-0.490
435,-0.490,-0.500
436,-0.500,-0.485
437,-0.520,-0.485
438,-0.530,-0.500
439,-0.530,-0.500
440,-0.530,-0.505
441,-0.530,-0.500
442,-0.525,-0.490
443,-0.515,-0.490
444,-0.510,-0.475
445,-0.500,-0.475
446,-0.500,-0.485
447,-0.500,-0.485
448,-0.505,-0.485
449,-0.510,-0.500
450,-0.510,-0.500
451,-0.515,-0.505
452,-0.525,-0.510
453,-0.530,-0.500
454,-0.550,-0.490
455,-0.570,-0.490
456,-0.575,-0.475
457,-0.560,-0.465
458,-0.505,-0.485
459,-0.410,-0.510
460,-0.275,-0.550
461,-0.110,-0.605
462,0.095,-0.660
463,0.305,-0.735
464,0.535,-0.775
465,0.720,-0.780
466,0.805,-0.765
467,0.750,-0.715
468,0.565,-0.650
469,0.285,-0.560
470,-0.010,-0.480
471,-0.260,-0.425
472,-0.425,-0.400
473,-0.500,-0.395
474,-0.490,-0.435
475,-0.450,-0.480
476,-0.415,-0.515
477,-0.400,-0.545
478,-0.385,-0.545
479,-0.390,-0.540
480,-0.400,-0.520
481,-0.420,-0.495
482,-0.445,-0.490
483,-0.465,-0.485
484,-0.470,-0.505
485,-0.485,-0.505
486,-0.500,-0.510
487,-0.500,-0.520
488,-0.510,-0.505
489,-0.495,-0.500
490,-0.480,-0.495
491,-0.480,-0.490
492,-0.475,-0.480
493,-0.485,-0.475
494,-0.480,-0.470
495,-0.470,-0.475
496,-0.475,-0.475
497,-0.495,-0.495
498,-0.505,-0.495
499,-0.505,-0.495
500,-0.515,-0.490
501,-0.510,-0.485
502,-0.500,-0.495
503,-0.485,-0.475
504,-0.485,-0.470
505,-0.470,-0.465
506,-0.475,-0.465
507,-0.475,-0.475
508,-0.480,-0.490
509,-0.485,-0.500
510,-0.485,-0.505
511,-0.485,-0.505
512,-0.490,-0.505
513,-0.495,-0.510
514,-0.490,-0.490
515,-0.485,-0.495
516,-0.470,-0.485
517,-0.465,-0.485
518,-0.470,-0.490
519,-0.455,-0.495
520,-0.455,-0.495
521,-0.460,-0.505
522,-0.470,-0.515
523,-0.465,-0.525
524,-0.475,-0.515
525,-0.475,-0.515
526,-0.485,-0.515
527,-0.480,-0.505
528,-0.475,-0.505
529,-0.455,-0.500
530,-0.440,-0.500
531,-0.435,-0.510
532,-0.425,-0.510
533,-0.435,-0.520
534,-0.435,-0.525
535,-0.450,-0.520
536,-0.455,-0.530
537,-0.460,-0.535
538,-0.455,-0.525
539,-0.460,-0.520
540,-0.455,-0.520
541,-0.455,-0.510
542,-0.450,-0.505
543,-0.435,-0.520
544,-0.430,-0.525
545,-0.435,-0.540
546,-0.435,-0.545
547,-0.445,-0.560
548,-0.445,-0.550
549,-0.450,-0.550
550,-0.445,-0.550
551,-0.440,-0.540
552,-0.435,-0.540
553,-0.440,-0.530
554,-0.435,-0.535
555,-0.420,-0.530
556,-0.425,-0.555
557,-0.435,-0.565
558,-0.430,-0.570
559,-0.435,-0.580
560,-0.425,-0.580
561,-0.410,-0.580
562,-0.385,-0.575
563,-0.375,-0.565
564,-0.360,-0.570
565,-0.345,-0.565
566,-0.340,-0.565
567,-0.340,-0.565
568,-0.350,-0.580
569,-0.345,-0.575
570,-0.360,-0.590
571,-0.365,-0.590
572,-0.370,-0.585
573,-0.385,-0.590
574,-0.380,-0.575
575,-0.365,-0.575
576,-0.370,-0.560
577,-0.365,-0.555
578,-0.370,-0.545
579,-0.375,-0.555
580,-0.390,-0.555
581,-0.400,-0.550
582,-0.415,-0.560
583,-0.420,-0.560
584,-0.425,-0.550
585,-0.430,-0.550
586,-0.430,-0.535
587,-0.435,-0.525
588,-0.425,-0.520
589,-0.420,-0.520
590,-0.430,-0.525
591,-0.445,-0.515
592,-0.445,-0.510
593,-0.450,-0.515
594,-0.450,-0.515
595,-0.455,-0.515
596,-0.465,-0.510
597,-0.465,-0.510
598,-0.455,-0.505
599,-0.460,-0.510
600,-0.455,-0.485
601,-0.440,-0.485
602,-0.450,-0.490
603,-0.440,-0.485
604,-0.445,-0.495
605,-0.460,-0.505
606,-0.460,-0.510
607,-0.475,-0.515
608,-0.470,-0.510
609,-0.480,-0.505
610,-0.475,-0.500
611,-0.470,-0.490
612,-0.465,-0.475
613,-0.460,-0.480
614,-0.460,-0.470
615,-0.460,-0.465
616,-0.470,-0.490
617,-0.470,-0.490
618,-0.480,-0.500
619,-0.500,-0.505
620,-0.510,-0.510
621,-0.520,-0.500
622,-0.510,-0.490
623,-0.490,-0.480
624,-0.480,-0.480
625,-0.465,-0.470
626,-0.465,-0.475
627,-0.465,-0.475
628,-0.465,-0.485
629,-0.490,-0.480
630,-0.490,-0.490
631,-0.500,-0.505
632,-0.495,-0.495
633,-0.490,-0.500
634,-0.485,-0.475
635,-0.480,-0.470
636,-0.475,-0.475
637,-0.470,-0.470
638,-0.480,-0.460
639,-0.475,-0.475
640,-0.480,-0.465
641,-0.495,-0.480
642,-0.490,-0.475
643,-0.505,-0.480
644,-0.490,-0.485
645,-0.490,-0.475
646,-0.470,-0.460
647,-0.465,-0.455
648,-0.455,-0.450
649,-0.450,-0.430
650,-0.445,-0.440
651,-0.440,-0.445
652,-0.430,-0.445
653,-0.435,-0.445
654,-0.430,-0.470
655,-0.415,-0.480
656,-0.415,-0.485
657,-0.420,-0.480
658,-0.410,-0.485
659,-0.420,-0.485
660,-0.430,-0.485
661,-0.430,-0.485
662,-0.440,-0.500
663,-0.435,-0.490
664,-0.455,-0.500
665,-0.445,-0.490
666,-0.445,-0.510
667,-0.465,-0.515
668,-0.475,-0.500
669,-0.490,-0.505
670,-0.490,-0.500
671,-0.495,-0.475
672,-0.490,-0.475
673,-0.485,-0.470
674,-0.490,-0.460
675,-0.500,-0.455
676,-0.500,-0.460
677,-0.515,-0.460
678,-0.520,-0.465
679,-0.535,-0.480
680,-0.540,-0.475
681,-0.545,-0.465
682,-0.540,-0.465
683,-0.530,-0.455
684,-0.535,-0.450
685,-0.530,-0.430
686,-0.520,-0.450
687,-0.515,-0.455
688,-0.505,-0.460
689,-0.520,-0.465
690,-0.525,-0.485
691,-0.530,-0.480
692,-0.540,-0.490
693,-0.540,-0.465
694,-0.550,-0.470
695,-0.560,-0.470
696,-0.575,-0.450
697,-0.580,-0.460
698,-0.555,-0.460
699,-0.480,-0.465
700,-0.360,-0.500
701,-0.215,-0.530
702,-0.030,-0.575
703,0.195,-0.635
704,0.440,-0.680
705,0.650,-0.690
706,0.800,-0.690
707,0.820,-0.655
708,0.690,-0.605
709,0.430,-0.530
710,0.105,-0.470
711,-0.215,-0.420
712,-0.445,-0.380
713,-0.555,-0.355
714,-0.580,-0.380
715,-0.530,-0.400
716,-0.485,-0.435
717,-0.445,-0.465
718,-0.430,-0.485
719,-0.420,-0.485
720,-0.425,-0.490
721,-0.430,-0.470
722,-0.445,-0.465
723,-0.460,-0.465
724,-0.475,-0.460
725,-0.485,-0.470
726,-0.500,-0.475
727,-0.505,-0.480
728,-0.510,-0.485
729,-0.515,-0.475
730,-0.520,-0.480
731,-0.510,-0.470
732,-0.505,-0.465
733,-0.500,-0.445
734,-0.495,-0.450
735,-0.495,-0.460
736,-0.495,-0.465
737,-0.500,-0.475
738,-0.505,-0.470
739,-0.510,-0.490
740,-0.505,-0.490
741,-0.515,-0.490
742,-0.525,-0.475
743,-0.515,-0.465
744,-0.510,-0.460
745,-0.510,-0.450
746,-0.500,-0.460
747,-0.490,-0.465
748,-0.500,-0.465
749,-0.500,-0.470
750,-0.495,-0.490
751,-0.510,-0.490
752,-0.500,-0.495
753,-0.505,-0.500
754,-0.495,-0.480
755,-0.495,-0.475
756,-0.495,-0.470
757,-0.485,-0.455
758,-0.475,-0.455
759,-0.475,-0.470
760,-0.475,-0.475
761,-0.480,-0.485
762,-0.470,-0.500
763,-0.480,-0.495
764,-0.485,-0.505
765,-0.480,-0.505
766,-0.495,-0.490
767,-0.495,-0.490
768,-0.475,-0.485
769,-0.470,-0.475
770,-0.470,-0.485
771,-0.455,-0.485
772,-0.460,-0.500
773,-0.455,-0.505
774,-0.455,-0.515
775,-0.470,-0.520
776,-0.475,-0.525
777,-0.475,-0.520
778,-0.470,-0.520
779,-0.470,-0.510
780,-0.465,-0.505
781,-0.455,-0.505
782,-0.455,-0.515
783,-0.465,-0.515
784,-0.450,-0.515
785,-0.460,-0.530
786,-0.470,-0.545
787,-0.470,-0.550
788,-0.475,-0.540
789,-0.475,-0.540
790,-0.470,-0.530
791,-0.470,-0.525
792,-0.455,-0.520
793,-0.455,-0.515
794,-0.440,-0.525
795,-0.435,-0.525
796,-0.430,-0.535
797,-0.435,-0.555
798,-0.430,-0.560
799,-0.425,-0.565
800,-0.425,-0.570
801,-0.425,-0.565
802,-0.415,-0.560
803,-0.400,-0.550
804,-0.380,-0.540
805,-0.380,-0.540
806,-0.370,-0.545
807,-0.365,-0.540
808,-0.370,-0.545
809,-0.375,-0.545
810,-0.375,-0.565
811,-0.385,-0.570
812,-0.385,-0.560
813,-0.395,-0.560
814,-0.405,-0.545
815,-0.395,-0.535
816,-0.400,-0.525
817,-0.395,-0.520
818,-0.400,-0.510
819,-0.405,-0.520
820,-0.410,-0.520
821,-0.415,-0.525
822,-0.425,-0.525
823,-0.450,-0.525
824,-0.450,-0.520
825,-0.460,-0.510
826,-0.465,-0.510
827,-0.450,-0.500
828,-0.450,-0.505
829,-0.450,-0.485
830,-0.455,-0.495
831,-0.450,-0.495
832,-0.445,-0.490
833,-0.460,-0.490
834,-0.470,-0.500
835,-0.470,-0.505
836,-0.475,-0.510
837,-0.470,-0.495
838,-0.475,-0.495
839,-0.465,-0.495
840,-0.465,-0.480
841,-0.455,-0.475
842,-0.455,-0.465
843,-0.465,-0.470
844,-0.455,-0.475
845,-0.465,-0.485
846,-0.460,-0.500
847,-0.480,-0.490
848,-0.495,-0.510
849,-0.480,-0.490
850,-0.485,-0.490
851,-0.475,-0.475
852,-0.475,-0.465
853,-0.465,-0.465
854,-0.470,-0.470
855,-0.470,-0.465
856,-0.465,-0.485
857,-0.480,-0.490
858,-0.485,-0.490
859,-0.490,-0.490
860,-0.505,-0.495
861,-0.500,-0.485
862,-0.500,-0.475
863,-0.490,-0.480
864,-0.480,-0.460
865,-0.480,-0.460
866,-0.485,-0.455
867,-0.475,-0.465
868,-0.475,-0.475
869,-0.495,-0.475
870,-0.485,-0.480
871,-0.505,-0.485
872,-0.495,-0.490
873,-0.505,-0.485
874,-0.495,-0.490
875,-0.500,-0.475
876,-0.490,-0.470
877,-0.480,-0.450
878,-0.475,-0.455
879,-0.465,-0.470
880,-0.460,-0.465
881,-0.460,-0.480
882,-0.460,-0.485
883,-0.455,-0.485
884,-0.455,-0.470
885,-0.455,-0.480
886,-0.445,-0.470
887,-0.440,-0.460
888,-0.430,-0.445
889,-0.420,-0.445
890,-0.415,-0.445
891,-0.400,-0.455
892,-0.390,-0.460
893,-0.375,-0.480
894,-0.375,-0.495
895,-0.385,-0.515
896,-0.410,-0.520
897,-0.425,-0.510
898,-0.440,-0.520
899,-0.445,-0.505
900,-0.435,-0.505
901,-0.440,-0.500
902,-0.435,-0.495
903,-0.435,-0.500
904,-0.440,-0.505
905,-0.445,-0.510
906,-0.450,-0.520
907,-0.460,-0.515
908,-0.480,-0.515
909,-0.485,-0.510
910,-0.495,-0.500
911,-0.505,-0.485
912,-0.505,-0.475
913,-0.515,-0.470
914,-0.520,-0.460
915,-0.520,-0.465
916,-0.510,-0.475
917,-0.515,-0.475
918,-0.525,-0.490
919,-0.520,-0.490
920,-0.525,-0.500
921,-0.530,-0.490
922,-0.525,-0.485
923,-0.515,-0.475
924,-0.515,-0.470
925,-0.500,-0.460
926,-0.510,-0.465
927,-0.510,-0.465
928,-0.505,-0.470
929,-0.505,-0.485
930,-0.515,-0.495
931,-0.530,-0.500
932,-0.555,-0.500
933,-0.575,-0.490
934,-0.595,-0.480
935,-0.585,-0.465
936,-0.525,-0.480
937,-0.440,-0.475
938,-0.320,-0.510
939,-0.170,-0.550
940,0.005,-0.590
941,0.215,-0.635
942,0.405,-0.670
943,0.590,-0.695
944,0.715,-0.690
945,0.725,-0.670
946,0.625,-0.635
947,0.420,-0.595
948,0.150,-0.535
949,-0.115,-0.490
950,-0.340,-0.450
951,-0.470,-0.435
952,-0.515,-0.425
953,-0.495,-0.465
954,-0.450,-0.485
955,-0.410,-0.515
956,-0.390,-0.535
957,-0.385,-0.545
958,-0.385,-0.535
959,-0.390,-0.525
960,-0.410,-0.505
961,-0.425,-0.495
962,-0.430,-0.485
963,-0.445,-0.490
964,-0.455,-0.490
965,-0.460,-0.495
966,-0.470,-0.510
967,-0.485,-0.500
968,-0.475,-0.510
969,-0.485,-0.510
970,-0.490,-0.510
971,-0.485,-0.490
972,-0.480,-0.485
973,-0.470,-0.485
974,-0.475,-0.475
975,-0.470,-0.485
976,-0.465,-0.475
977,-0.475,-0.490
978,-0.470,-0.505
979,-0.490,-0.500
980,-0.480,-0.505
981,-0.490,-0.510
982,-0.480,-0.490
983,-0.475,-0.485
984,-0.465,-0.485
985,-0.460,-0.480
986,-0.465,-0.480
987,-0.450,-0.480
988,-0.455,-0.490
989,-0.460,-0.495
990,-0.465,-0.500
991,-0.470,-0.500
992,-0.475,-0.510
993,-0.470,-0.515
994,-0.465,-0.505
995,-0.455,-0.495
996,-0.450,-0.495
997,-0.445,-0.485
998,-0.440,-0.480
999,-0.435,-0.490
1000,-0.440,-0.510
1001,-0.450,-0.515
1002,-0.455,-0.520
1003,-0.465,-0.530
1004,-0.470,-0.520
1005,-0.460,-0.520
1006,-0.450,-0.520
1007,-0.435,-0.510
1008,-0.425,-0.500
1009,-0.420,-0.500
1010,-0.425,-0.510
1011,-0.425,-0.505
1012,-0.425,-0.515
1013,-0.430,-0.520
1014,-0.440,-0.535
1015,-0.435,-0.535
1016,-0.440,-0.530
1017,-0.440,-0.530
1018,-0.430,-0.525
1019,-0.420,-0.530
1020,-0.420,-0.520
1021,-0.405,-0.505
1022,-0.400,-0.530
1023,-0.405,-0.525
1024,-0.410,-0.540
1025,-0.415,-0.540
1026,-0.420,-0.555
1027,-0.425,-0.550
1028,-0.425,-0.545
1029,-0.420,-0.545
1030,-0.425,-0.540
1031,-0.415,-0.530
1032,-0.405,-0.530
1033,-0.395,-0.535
1034,-0.400,-0.535
1035,-0.400,-0.535
1036,-0.405,-0.545
1037,-0.405,-0.565
1038,-0.405,-0.570
1039,-0.410,-0.565
1040,-0.410,-0.565
1041,-0.400,-0.570
1042,-0.385,-0.565
1043,-0.365,-0.555
1044,-0.355,-0.555
1045,-0.350,-0.550
1046,-0.340,-0.565
1047,-0.325,-0.555
1048,-0.330,-0.565
1049,-0.330,-0.580
1050,-0.340,-0.590
1051,-0.340,-0.590
1052,-0.340,-0.585
1053,-0.335,-0.585
1054,-0.335,-0.575
1055,-0.340,-0.575
1056,-0.335,-0.555
1057,-0.330,-0.555
1058,-0.335,-0.550
1059,-0.340,-0.555
1060,-0.350,-0.560
1061,-0.360,-0.565
1062,-0.370,-0.555
1063,-0.385,-0.570
1064,-0.400,-0.555
1065,-0.395,-0.550
1066,-0.395,-0.550
1067,-0.395,-0.525
1068,-0.395,-0.530
1069,-0.400,-0.520
1070,-0.405,-0.515
1071,-0.405,-0.525
1072,-0.415,-0.515
1073,-0.415,-0.525
1074,-0.435,-0.535
1075,-0.435,-0.535
1076,-0.440,-0.530
1077,-0.440,-0.520
1078,-0.435,-0.505
1079,-0.430,-0.500
1080,-0.430,-0.495
1081,-0.430,-0.485
1082,-0.430,-0.490
1083,-0.425,-0.500
1084,-0.435,-0.500
1085,-0.435,-0.500
1086,-0.450,-0.515
1087,-0.445,-0.510
1088,-0.460,-0.505
1089,-0.455,-0.500
1090,-0.460,-0.500
1091,-0.440,-0.490
1092,-0.445,-0.475
1093,-0.425,-0.480
1094,-0.435,-0.485
1095,-0.430,-0.480
1096,-0.440,-0.490
1097,-0.450,-0.485
1098,-0.450,-0.500
1099,-0.460,-0.505
1100,-0.460,-0.500
1101,-0.465,-0.490
1102,-0.460,-0.485
1103,-0.450,-0.485
1104,-0.450,-0.480
1105,-0.450,-0.465
1106,-0.450,-0.480
1107,-0.450,-0.485
1108,-0.450,-0.490
1109,-0.455,-0.500
1110,-0.460,-0.495
1111,-0.475,-0.490
1112,-0.485,-0.495
1113,-0.490,-0.490
1114,-0.475,-0.470
1115,-0.465,-0.475
1116,-0.455,-0.465
1117,-0.455,-0.460
1118,-0.445,-0.465
1119,-0.440,-0.470
1120,-0.445,-0.480
1121,-0.440,-0.480
1122,-0.440,-0.505
1123,-0.445,-0.500
1124,-0.435,-0.485
1125,-0.425,-0.490
1126,-0.420,-0.465
1127,-0.400,-0.465
1128,-0.390,-0.455
1129,-0.395,-0.450
1130,-0.385,-0.450
1131,-0.385,-0.455
1132,-0.385,-0.470
1133,-0.390,-0.465
1134,-0.390,-0.475
1135,-0.385,-0.490
1136,-0.375,-0.500
1137,-0.365,-0.500
1138,-0.375,-0.495
1139,-0.385,-0.500
1140,-0.390,-0.505
1141,-0.405,-0.505
1142,-0.405,-0.510
1143,-0.405,-0.515
1144,-0.415,-0.515
1145,-0.420,-0.525
1146,-0.425,-0.525
1147,-0.425,-0.530
1148,-0.440,-0.520
1149,-0.445,-0.505
1150,-0.440,-0.515
1151,-0.450,-0.490
1152,-0.435,-0.475
1153,-0.450,-0.475
1154,-0.455,-0.470
1155,-0.470,-0.470
1156,-0.485,-0.485
1157,-0.500,-0.470
1158,-0.515,-0.480
1159,-0.525,-0.490
1160,-0.525,-0.475
1161,-0.515,-0.475
1162,-0.505,-0.470
1163,-0.505,-0.460
1164,-0.500,-0.460
1165,-0.480,-0.455
1166,-0.485,-0.460
1167,-0.490,-0.460
1168,-0.490,-0.465
1169,-0.495,-0.470
1170,-0.500,-0.490
1171,-0.500,-0.490
1172,-0.500,-0.475
1173,-0.495,-0.480
1174,-0.505,-0.485
1175,-0.510,-0.465
1176,-0.530,-0.455
1177,-0.535,-0.450
1178,-0.540,-0.455
1179,-0.515,-0.450
1180,-0.460,-0.470
1181,-0.380,-0.495
1182,-0.255,-0.545
1183,-0.095,-0.585
1184,0.090,-0.620
1185,0.295,-0.660
1186,0.510,-0.695
1187,0.685,-0.700
1188,0.765,-0.675
1189,0.715,-0.655
1190,0.530,-0.620
1191,0.270,-0.550
1192,-0.010,-0.510
1193,-0.265,-0.470
1194,-0.430,-0.435
1195,-0.505,-0.430
1196,-0.490,-0.435
1197,-0.450,-0.455
1198,-0.395,-0.480
1199,-0.365,-0.500
1200,-0.340,-0.510
1201,-0.340,-0.500
1202,-0.360,-0.500
1203,-0.370,-0.495
1204,-0.400,-0.485
1205,-0.425,-0.495
1206,-0.445,-0.495
1207,-0.455,-0.485
1208,-0.460,-0.485
1209,-0.460,-0.480
1210,-0.460,-0.475
1211,-0.460,-0.475
1212,-0.450,-0.460
1213,-0.455,-0.450
1214,-0.450,-0.450
1215,-0.450,-0.460
1216,-0.465,-0.470
1217,-0.465,-0.485
1218,-0.470,-0.485
1219,-0.475,-0.485
1220,-0.485,-0.470
1221,-0.475,-0.475
1222,-0.470,-0.470
1223,-0.460,-0.465
1224,-0.455,-0.465
1225,-0.445,-0.460
1226,-0.445,-0.470
1227,-0.450,-0.465
1228,-0.445,-0.480
1229,-0.455,-0.485
1230,-0.455,-0.485
1231,-0.455,-0.490
1232,-0.465,-0.490
1233,-0.455,-0.490
1234,-0.455,-0.480
1235,-0.445,-0.480
1236,-0.435,-0.475
1237,-0.435,-0.465
1238,-0.430,-0.465
1239,-0.430,-0.475
1240,-0.425,-0.485
1241,-0.445,-0.490
1242,-0.440,-0.500
1243,-0.440,-0.505
1244,-0.450,-0.495
1245,-0.440,-0.485
1246,-0.445,-0.495
1247,-0.435,-0.480
1248,-0.435,-0.475
1249,-0.425,-0.480
1250,-0.420,-0.475
1251,-0.420,-0.485
1252,-0.425,-0.505
1253,-0.430,-0.505
1254,-0.425,-0.515
1255,-0.435,-0.510
1256,-0.435,-0.505
1257,-0.420,-0.525
1258,-0.425,-0.495
1259,-0.410,-0.495
1260,-0.410,-0.495
1261,-0.400,-0.500
1262,-0.400,-0.495
1263,-0.390,-0.505
1264,-0.395,-0.515
1265,-0.405,-0.520
1266,-0.410,-0.530
1267,-0.410,-0.540
1268,-0.420,-0.525
1269,-0.415,-0.540
1270,-0.405,-0.525
1271,-0.390,-0.520
1272,-0.385,-0.510
1273,-0.390,-0.510
1274,-0.385,-0.510
1275,-0.380,-0.525
1276,-0.385,-0.525
1277,-0.390,-0.535
1278,-0.395,-0.540
1279,-0.405,-0.545
1280,-0.400,-0.540
1281,-0.390,-0.545
1282,-0.390,-0.540
1283,-0.380,-0.530
1284,-0.360,-0.535
1285,-0.350,-0.525
1286,-0.335,-0.530
1287,-0.330,-0.550
1288,-0.335,-0.555
1289,-0.330,-0.565
1290,-0.340,-0.580
1291,-0.330,-0.575
1292,-0.325,-0.570
1293,-0.320,-0.575
1294,-0.310,-0.560
1295,-0.300,-0.565
1296,-0.295,-0.560
1297,-0.285,-0.555
1298,-0.285,-0.565
1299,-0.290,-0.555
1300,-0.300,-0.555
1301,-0.310,-0.565
1302,-0.325,-0.560
1303,-0.345,-0.565
1304,-0.345,-0.550
1305,-0.345,-0.550
1306,-0.355,-0.550
1307,-0.340,-0.520
1308,-0.355,-0.525
1309,-0.355,-0.515
1310,-0.365,-0.510
1311,-0.360,-0.515
1312,-0.375,-0.520
1313,-0.375,-0.525
1314,-0.385,-0.530
1315,-0.405,-0.525
1316,-0.410,-0.520
1317,-0.415,-0.520
1318,-0.405,-0.500
1319,-0.405,-0.495
1320,-0.400,-0.485
1321,-0.390,-0.485
1322,-0.390,-0.480
1323,-0.395,-0.485
1324,-0.400,-0.495
1325,-0.405,-0.500
1326,-0.425,-0.510
1327,-0.420,-0.495
1328,-0.425,-0.500
1329,-0.430,-0.495
1330,-0.425,-0.495
1331,-0.420,-0.490
1332,-0.410,-0.475
1333,-0.415,-0.470
1334,-0.420,-0.485
1335,-0.410,-0.475
1336,-0.410,-0.490
1337,-0.415,-0.495
1338,-0.425,-0.495
1339,-0.435,-0.500
1340,-0.435,-0.500
1341,-0.440,-0.495
1342,-0.445,-0.485
1343,-0.430,-0.475
1344,-0.425,-0.470
1345,-0.420,-0.470
1346,-0.420,-0.470
1347,-0.425,-0.475
1348,-0.420,-0.485
1349,-0.435,-0.485
1350,-0.440,-0.495
1351,-0.445,-0.495
1352,-0.455,-0.495
1353,-0.455,-0.495
1354,-0.450,-0.475
1355,-0.435,-0.475
1356,-0.450,-0.460
1357,-0.445,-0.470
1358,-0.440,-0.465
1359,-0.440,-0.465
1360,-0.445,-0.475
1361,-0.445,-0.495
1362,-0.455,-0.480
1363,-0.450,-0.500
1364,-0.455,-0.495
1365,-0.465,-0.480
1366,-0.450,-0.470
1367,-0.445,-0.460
1368,-0.420,-0.465
1369,-0.405,-0.470
1370,-0.400,-0.455
1371,-0.400,-0.460
1372,-0.390,-0.470
1373,-0.390,-0.480
1374,-0.395,-0.470
1375,-0.390,-0.470
1376,-0.390,-0.475
1377,-0.395,-0.470
1378,-0.390,-0.455
1379,-0.370,-0.455
1380,-0.365,-0.455
1381,-0.345,-0.460
1382,-0.335,-0.470
1383,-0.330,-0.475
1384,-0.345,-0.495
1385,-0.355,-0.505
1386,-0.375,-0.520
1387,-0.400,-0.520
1388,-0.410,-0.535
1389,-0.410,-0.510
1390,-0.400,-0.515
1391,-0.405,-0.500
1392,-0.400,-0.495
1393,-0.400,-0.490
1394,-0.405,-0.495
1395,-0.405,-0.495
1396,-0.410,-0.500
1397,-0.425,-0.500
1398,-0.440,-0.495
1399,-0.460,-0.495
1400,-0.475,-0.480
1401,-0.485,-0.465
1402,-0.490,-0.465
1403,-0.485,-0.460
1404,-0.490,-0.445
1405,-0.470,-0.450
1406,-0.480,-0.465
1407,-0.480,-0.460
1408,-0.480,-0.475
1409,-0.490,-0.470
1410,-0.495,-0.475
1411,-0.495,-0.485
1412,-0.500,-0.480
1413,-0.500,-0.475
1414,-0.490,-0.475
1415,-0.495,-0.470
1416,-0.485,-0.455
1417,-0.475,-0.460
1418,-0.485,-0.460
1419,-0.490,-0.460
1420,-0.515,-0.465
1421,-0.530,-0.465
1422,-0.555,-0.475
1423,-0.515,-0.495
1424,-0.435,-0.505
1425,-0.315,-0.530
1426,-0.140,-0.565
1427,0.075,-0.620
1428,0.310,-0.670
1429,0.550,-0.695
1430,0.710,-0.715
1431,0.745,-0.690
1432,0.635,-0.655
1433,0.385,-0.610
1434,0.090,-0.545
1435,-0.190,-0.490
1436,-0.395,-0.425
1437,-0.495,-0.415
1438,-0.495,-0.420
1439,-0.440,-0.445
1440,-0.370,-0.460
1441,-0.325,-0.500
1442,-0.305,-0.500
1443,-0.310,-0.510
1444,-0.330,-0.505
1445,-0.365,-0.495
1446,-0.405,-0.495
1447,-0.425,-0.500
1448,-0.450,-0.490
1449,-0.450,-0.485
1450,-0.445,-0.480
1451,-0.445,-0.465
1452,-0.430,-0.460
1453,-0.435,-0.455
1454,-0.430,-0.460
1455,-0.435,-0.465
1456,-0.445,-0.475
1457,-0.465,-0.480
1458,-0.455,-0.475
1459,-0.460,-0.490
1460,-0.465,-0.475
1461,-0.465,-0.485
1462,-0.465,-0.470
1463,-0.455,-0.465
1464,-0.440,-0.460
1465,-0.440,-0.460
1466,-0.440,-0.465
1467,-0.440,-0.460
1468,-0.445,-0.465
1469,-0.450,-0.475
1470,-0.455,-0.485
1471,-0.445,-0.475
1472,-0.445,-0.480
1473,-0.455,-0.475
1474,-0.440,-0.465
1475,-0.430,-0.470
1476,-0.425,-0.455
1477,-0.410,-0.460
1478,-0.405,-0.465
1479,-0.400,-0.475
1480,-0.415,-0.470
1481,-0.415,-0.480
1482,-0.420,-0.485
1483,-0.425,-0.490
1484,-0.425,-0.495
1485,-0.425,-0.490
1486,-0.420,-0.485
1487,-0.415,-0.475
1488,-0.400,-0.475
1489,-0.400,-0.475
1490,-0.410,-0.475
1491,-0.400,-0.475
1492,-0.405,-0.485
1493,-0.405,-0.495
1494,-0.410,-0.500
1495,-0.410,-0.510
1496,-0.400,-0.505
1497,-0.415,-0.510
1498,-0.400,-0.490
1499,-0.385,-0.495
1500,-0.380,-0.495
1501,-0.365,-0.480
1502,-0.370,-0.485
1503,-0.355,-0.495
1504,-0.360,-0.505
1505,-0.370,-0.520
1506,-0.380,-0.520
1507,-0.385,-0.525
1508,-0.380,-0.530
1509,-0.385,-0.515
1510,-0.390,-0.505
1511,-0.375,-0.500
1512,-0.360,-0.500
1513,-0.355,-0.500
1514,-0.355,-0.510
1515,-0.335,-0.505
1516,-0.345,-0.525
1517,-0.355,-0.530
1518,-0.365,-0.540
1519,-0.360,-0.550
1520,-0.360,-0.540
1521,-0.360,-0.545
1522,-0.355,-0.530
1523,-0.335,-0.530
1524,-0.325,-0.535
1525,-0.310,-0.530
1526,-0.295,-0.530
1527,-0.300,-0.535
1528,-0.290,-0.540
1529,-0.285,-0.560
1530,-0.275,-0.555
1531,-0.275,-0.565
1532,-0.275,-0.560
1533,-0.280,-0.560
1534,-0.275,-0.555
1535,-0.275,-0.545
1536,-0.270,-0.530
1537,-0.260,-0.530
1538,-0.270,-0.545
1539,-0.270,-0.535
1540,-0.285,-0.545
1541,-0.300,-0.545
1542,-0.320,-0.555
1543,-0.340,-0.545
1544,-0.350,-0.545
1545,-0.355,-0.535
1546,-0.350,-0.520
1547,-0.345,-0.510
1548,-0.335,-0.505
1549,-0.340,-0.490
1550,-0.340,-0.500
1551,-0.340,-0.495
1552,-0.355,-0.500
1553,-0.370,-0.510
1554,-0.385,-0.505
1555,-0.390,-0.505
1556,-0.395,-0.505
1557,-0.410,-0.490
1558,-0.400,-0.490
1559,-0.395,-0.475
1560,-0.390,-0.470
1561,-0.390,-0.470
1562,-0.410,-0.465
1563,-0.395,-0.465
1564,-0.400,-0.475
1565,-0.405,-0.475
1566,-0.415,-0.480
1567,-0.425,-0.495
1568,-0.425,-0.485
1569,-0.440,-0.480
1570,-0.445,-0.470
1571,-0.430,-0.460
1572,-0.430,-0.465
1573,-0.425,-0.460
1574,-0.420,-0.460
1575,-0.415,-0.470
1576,-0.420,-0.475
1577,-0.420,-0.475
1578,-0.430,-0.485
1579,-0.435,-0.485
1580,-0.435,-0.480
1581,-0.440,-0.480
1582,-0.445,-0.475
1583,-0.435,-0.470
1584,-0.425,-0.460
1585,-0.430,-0.455
1586,-0.430,-0.460
1587,-0.430,-0.455
1588,-0.430,-0.460
1589,-0.435,-0.475
1590,-0.445,-0.475
1591,-0.445,-0.485
1592,-0.455,-0.475
1593,-0.450,-0.475
1594,-0.445,-0.470
1595,-0.445,-0.465
1596,-0.430,-0.460
1597,-0.430,-0.445
1598,-0.430,-0.460
1599,-0.440,-0.470
1600,-0.440,-0.470
1601,-0.445,-0.470
1602,-0.450,-0.470
1603,-0.450,-0.470
1604,-0.445,-0.465
1605,-0.445,-0.465
1606,-0.425,-0.455
1607,-0.420,-0.455
1608,-0.410,-0.450
1609,-0.400,-0.440
1610,-0.390,-0.430
1611,-0.390,-0.435
1612,-0.390,-0.445
1613,-0.385,-0.455
1614,-0.395,-0.460
1615,-0.400,-0.465
1616,-0.400,-0.465
1617,-0.385,-0.450
1618,-0.370,-0.450
1619,-0.345,-0.450
1620,-0.345,-0.450
1621,-0.340,-0.460
1622,-0.345,-0.465
1623,-0.355,-0.480
1624,-0.365,-0.500
1625,-0.390,-0.495
1626,-0.400,-0.505
1627,-0.410,-0.510
1628,-0.410,-0.510
1629,-0.410,-0.500
1630,-0.400,-0.495
1631,-0.400,-0.475
1632,-0.395,-0.470
1633,-0.395,-0.465
1634,-0.405,-0.475
1635,-0.405,-0.470
1636,-0.420,-0.470
1637,-0.440,-0.485
1638,-0.455,-0.475
1639,-0.465,-0.475
1640,-0.485,-0.470
1641,-0.500,-0.475
1642,-0.485,-0.455
1643,-0.485,-0.460
1644,-0.470,-0.445
1645,-0.470,-0.445
1646,-0.465,-0.460
1647,-0.465,-0.440
1648,-0.470,-0.450
1649,-0.480,-0.460
1650,-0.480,-0.465
1651,-0.480,-0.470
1652,-0.485,-0.460
1653,-0.495,-0.460
1654,-0.490,-0.455
1655,-0.480,-0.460
1656,-0.470,-0.450
1657,-0.465,-0.430
1658,-0.470,-0.445
1659,-0.485,-0.440
1660,-0.505,-0.450
1661,-0.530,-0.450
1662,-0.520,-0.465
1663,-0.475,-0.475
1664,-0.380,-0.485
1665,-0.250,-0.510
1666,-0.075,-0.540
1667,0.140,-0.580
1668,0.365,-0.620
1669,0.590,-0.655
1670,0.770,-0.675
1671,0.855,-0.670
1672,0.795,-0.645
1673,0.615,-0.600
1674,0.335,-0.545
1675,0.045,-0.485
1676,-0.205,-0.415
1677,-0.380,-0.380
1678,-0.450,-0.360
1679,-0.455,-0.365
1680,-0.425,-0.375
1681,-0.370,-0.410
1682,-0.345,-0.440
1683,-0.345,-0.460
1684,-0.360,-0.485
1685,-0.360,-0.505
1686,-0.385,-0.485
1687,-0.400,-0.490
1688,-0.430,-0.490
1689,-0.440,-0.465
1690,-0.445,-0.450
1691,-0.445,-0.455
1692,-0.440,-0.450
1693,-0.435,-0.435
1694,-0.435,-0.435
1695,-0.445,-0.435
1696,-0.435,-0.450
1697,-0.460,-0.455
1698,-0.455,-0.465
1699,-0.460,-0.470
1700,-0.465,-0.465
1701,-0.460,-0.460
1702,-0.450,-0.445
1703,-0.435,-0.440
1704,-0.430,-0.430
1705,-0.425,-0.425
1706,-0.430,-0.435
1707,-0.435,-0.445
1708,-0.435,-0.450
1709,-0.440,-0.460
1710,-0.450,-0.465
1711,-0.450,-0.475
1712,-0.455,-0.460
1713,-0.460,-0.455
1714,-0.455,-0.445
1715,-0.455,-0.445
1716,-0.445,-0.430
1717,-0.435,-0.435
1718,-0.430,-0.440
1719,-0.425,-0.435
1720,-0.425,-0.460
1721,-0.420,-0.460
1722,-0.435,-0.475
1723,-0.430,-0.475
1724,-0.430,-0.465
1725,-0.435,-0.465
1726,-0.430,-0.465
1727,-0.425,-0.460
1728,-0.420,-0.445
1729,-0.400,-0.450
1730,-0.405,-0.460
1731,-0.390,-0.465
1732,-0.400,-0.465
1733,-0.400,-0.480
1734,-0.405,-0.485
1735,-0.415,-0.480
1736,-0.420,-0.485
1737,-0.430,-0.485
1738,-0.420,-0.480
1739,-0.425,-0.480
1740,-0.415,-0.480
1741,-0.410,-0.470
1742,-0.410,-0.475
1743,-0.400,-0.480
1744,-0.400,-0.480
1745,-0.410,-0.490
1746,-0.420,-0.495
1747,-0.425,-0.500
1748,-0.430,-0.505
1749,-0.445,-0.500
1750,-0.435,-0.500
1751,-0.425,-0.495
1752,-0.420,-0.490
1753,-0.405,-0.490
1754,-0.395,-0.490
1755,-0.380,-0.500
1756,-0.385,-0.510
1757,-0.395,-0.525
1758,-0.405,-0.530
1759,-0.405,-0.535
1760,-0.410,-0.530
1761,-0.400,-0.520
1762,-0.390,-0.530
1763,-0.375,-0.520
1764,-0.360,-0.520
1765,-0.335,-0.510
1766,-0.335,-0.525
1767,-0.315,-0.520
1768,-0.310,-0.530
1769,-0.330,-0.535
1770,-0.325,-0.545
1771,-0.340,-0.540
1772,-0.335,-0.545
1773,-0.340,-0.540
1774,-0.330,-0.530
1775,-0.335,-0.525
1776,-0.320,-0.510
1777,-0.325,-0.515
1778,-0.330,-0.510
1779,-0.330,-0.505
1780,-0.335,-0.515
1781,-0.340,-0.510
1782,-0.340,-0.520
1783,-0.360,-0.510
1784,-0.375,-0.510
1785,-0.385,-0.505
1786,-0.375,-0.495
1787,-0.380,-0.480
1788,-0.385,-0.475
1789,-0.385,-0.455
1790,-0.385,-0.465
1791,-0.380,-0.460
1792,-0.380,-0.475
1793,-0.395,-0.470
1794,-0.400,-0.470
1795,-0.420,-0.475
1796,-0.435,-0.485
1797,-0.440,-0.470
1798,-0.435,-0.455
1799,-0.415,-0.450
1800,-0.405,-0.435
1801,-0.395,-0.440
1802,-0.395,-0.440
1803,-0.390,-0.440
1804,-0.400,-0.450
1805,-0.415,-0.445
1806,-0.420,-0.460
1807,-0.430,-0.465
1808,-0.425,-0.460
1809,-0.430,-0.450
1810,-0.425,-0.455
1811,-0.435,-0.435
1812,-0.425,-0.440
1813,-0.420,-0.425
1814,-0.430,-0.430
1815,-0.425,-0.430
1816,-0.435,-0.440
1817,-0.440,-0.455
1818,-0.460,-0.460
1819,-0.460,-0.455
1820,-0.465,-0.450
1821,-0.460,-0.455
1822,-0.450,-0.435
1823,-0.445,-0.430
1824,-0.440,-0.425
1825,-0.435,-0.415
1826,-0.425,-0.420
1827,-0.425,-0.430
1828,-0.430,-0.430
1829,-0.435,-0.445
1830,-0.430,-0.450
1831,-0.435,-0.450
1832,-0.440,-0.445
1833,-0.450,-0.435
1834,-0.460,-0.440
1835,-0.460,-0.430
1836,-0.450,-0.430
1837,-0.445,-0.430
1838,-0.445,-0.425
1839,-0.440,-0.430
1840,-0.440,-0.435
1841,-0.440,-0.440
1842,-0.430,-0.440
1843,-0.425,-0.450
1844,-0.410,-0.440
1845,-0.415,-0.430
1846,-0.405,-0.405
1847,-0.395,-0.400
1848,-0.385,-0.405
1849,-0.385,-0.395
1850,-0.375,-0.405
1851,-0.365,-0.410
1852,-0.350,-0.420
1853,-0.350,-0.430
1854,-0.350,-0.445
1855,-0.365,-0.460
1856,-0.375,-0.470
1857,-0.390,-0.465
1858,-0.405,-0.465
1859,-0.405,-0.460
1860,-0.405,-0.450
1861,-0.395,-0.445
1862,-0.395,-0.450
1863,-0.395,-0.440
1864,-0.400,-0.450
1865,-0.415,-0.455
1866,-0.435,-0.460
1867,-0.440,-0.465
1868,-0.445,-0.455
1869,-0.460,-0.440
1870,-0.465,-0.440
1871,-0.460,-0.430
1872,-0.470,-0.425
1873,-0.475,-0.415
1874,-0.480,-0.410
1875,-0.485,-0.420
1876,-0.485,-0.430
1877,-0.490,-0.430
1878,-0.490,-0.440
1879,-0.490,-0.450
1880,-0.495,-0.425
1881,-0.495,-0.435
1882,-0.490,-0.440
1883,-0.480,-0.420
1884,-0.470,-0.425
1885,-0.475,-0.420
1886,-0.465,-0.420
1887,-0.465,-0.415
1888,-0.465,-0.435
1889,-0.475,-0.435
1890,-0.495,-0.440
1891,-0.510,-0.450
1892,-0.530,-0.440
1893,-0.535,-0.445
1894,-0.510,-0.440
1895,-0.450,-0.435
1896,-0.340,-0.455
1897,-0.205,-0.475
1898,-0.020,-0.515
1899,0.195,-0.565
1900,0.420,-0.590
1901,0.620,-0.620
1902,0.755,-0.620
1903,0.790,-0.630
1904,0.670,-0.570
1905,0.435,-0.520
1906,0.150,-0.455
1907,-0.135,-0.410
1908,-0.355,-0.370
1909,-0.485,-0.345
1910,-0.515,-0.340
1911,-0.485,-0.360
1912,-0.450,-0.390
1913,-0.405,-0.430
1914,-0.385,-0.450
1915,-0.395,-0.485
1916,-0.405,-0.480
1917,-0.410,-0.480
1918,-0.415,-0.460
1919,-0.415,-0.450
1920,-0.425,-0.445
1921,-0.430,-0.430
1922,-0.435,-0.430
1923,-0.435,-0.445
1924,-0.450,-0.450
1925,-0.465,-0.460
1926,-0.470,-0.470
1927,-0.485,-0.475
1928,-0.470,-0.460
1929,-0.475,-0.455
1930,-0.470,-0.450
1931,-0.465,-0.450
1932,-0.460,-0.445
1933,-0.455,-0.435
1934,-0.435,-0.435
1935,-0.445,-0.445
1936,-0.440,-0.445
1937,-0.440,-0.450
1938,-0.455,-0.455
1939,-0.455,-0.455
1940,-0.450,-0.465
1941,-0.450,-0.465
1942,-0.445,-0.455
1943,-0.445,-0.445
1944,-0.440,-0.435
1945,-0.435,-0.435
1946,-0.435,-0.435
1947,-0.425,-0.440
1948,-0.425,-0.455
1949,-0.435,-0.465
1950,-0.440,-0.470
1951,-0.440,-0.465
1952,-0.445,-0.470
1953,-0.450,-0.465
1954,-0.445,-0.450
1955,-0.435,-0.460
1956,-0.430,-0.450
1957,-0.420,-0.440
1958,-0.415,-0.450
1959,-0.410,-0.455
1960,-0.405,-0.465
1961,-0.410,-0.475
1962,-0.415,-0.485
1963,-0.420,-0.490
1964,-0.425,-0.490
1965,-0.420,-0.480
1966,-0.410,-0.470
1967,-0.410,-0.465
1968,-0.400,-0.460
1969,-0.395,-0.455
1970,-0.390,-0.460
1971,-0.390,-0.475
1972,-0.390,-0.480
1973,-0.395,-0.485
1974,-0.405,-0.495
1975,-0.415,-0.505
1976,-0.420,-0.500
1977,-0.420,-0.495
1978,-0.420,-0.490
1979,-0.400,-0.490
1980,-0.400,-0.495
1981,-0.395,-0.480
1982,-0.390,-0.485
1983,-0.390,-0.495
1984,-0.395,-0.500
1985,-0.395,-0.505
1986,-0.400,-0.520
1987,-0.410,-0.525
1988,-0.405,-0.525
1989,-0.405,-0.525
1990,-0.395,-0.515
1991,-0.390,-0.515
1992,-0.380,-0.505
1993,-0.370,-0.500
1994,-0.365,-0.505
1995,-0.365,-0.510
1996,-0.360,-0.520
1997,-0.345,-0.525
1998,-0.350,-0.535
1999,-0.350,-0.545
2000,-0.355,-0.535
2001,-0.345,-0.540
2002,-0.330,-0.530
2003,-0.320,-0.535
2004,-0.315,-0.535
2005,-0.295,-0.525
2006,-0.295,-0.530
2007,-0.290,-0.525
2008,-0.285,-0.530
2009,-0.290,-0.545
2010,-0.300,-0.545
2011,-0.310,-0.545
2012,-0.310,-0.540
2013,-0.325,-0.530
2014,-0.315,-0.525
2015,-0.325,-0.520
2016,-0.320,-0.500
2017,-0.335,-0.495
2018,-0.330,-0.495
2019,-0.325,-0.490
2020,-0.330,-0.500
2021,-0.340,-0.505
2022,-0.355,-0.515
2023,-0.360,-0.505
2024,-0.370,-0.500
2025,-0.375,-0.495
2026,-0.375,-0.495
2027,-0.370,-0.475
2028,-0.365,-0.475
2029,-0.365,-0.465
2030,-0.355,-0.460
2031,-0.360,-0.460
2032,-0.365,-0.465
2033,-0.380,-0.480
2034,-0.365,-0.480
2035,-0.385,-0.480
2036,-0.390,-0.470
2037,-0.395,-0.465
2038,-0.390,-0.465
2039,-0.390,-0.455
2040,-0.380,-0.455
2041,-0.365,-0.450
2042,-0.360,-0.450
2043,-0.365,-0.445
2044,-0.365,-0.455
2045,-0.370,-0.460
2046,-0.370,-0.465
2047,-0.385,-0.470
2048,-0.390,-0.475
2049,-0.390,-0.470
2050,-0.385,-0.460
2051,-0.385,-0.460
2052,-0.380,-0.445
2053,-0.375,-0.450
2054,-0.370,-0.440
2055,-0.365,-0.450
2056,-0.370,-0.450
2057,-0.375,-0.465
2058,-0.380,-0.460
2059,-0.390,-0.455
2060,-0.390,-0.465
2061,-0.400,-0.465
2062,-0.395,-0.455
2063,-0.395,-0.445
2064,-0.380,-0.440
2065,-0.380,-0.435
2066,-0.370,-0.430
2067,-0.375,-0.445
2068,-0.380,-0.450
2069,-0.385,-0.450
2070,-0.395,-0.475
2071,-0.405,-0.470
2072,-0.410,-0.465
2073,-0.405,-0.470
2074,-0.405,-0.460
2075,-0.400,-0.445
2076,-0.390,-0.440
2077,-0.380,-0.440
2078,-0.375,-0.440
2079,-0.380,-0.440
2080,-0.365,-0.455
2081,-0.360,-0.460
2082,-0.365,-0.455
2083,-0.360,-0.445
2084,-0.345,-0.445
2085,-0.355,-0.455
2086,-0.345,-0.440
2087,-0.335,-0.440
2088,-0.325,-0.415
2089,-0.320,-0.415
2090,-0.315,-0.415
2091,-0.310,-0.415
2092,-0.295,-0.435
2093,-0.300,-0.450
2094,-0.290,-0.455
2095,-0.290,-0.480
2096,-0.310,-0.485
2097,-0.320,-0.490
2098,-0.330,-0.480
2099,-0.325,-0.475
2100,-0.345,-0.470
2101,-0.335,-0.470
2102,-0.325,-0.475
2103,-0.330,-0.480
2104,-0.340,-0.470
2105,-0.355,-0.485
2106,-0.365,-0.485
2107,-0.375,-0.485
2108,-0.375,-0.485
2109,-0.385,-0.480
2110,-0.390,-0.465
2111,-0.400,-0.460
2112,-0.400,-0.445
2113,-0.405,-0.435
2114,-0.415,-0.435
2115,-0.405,-0.440
2116,-0.415,-0.440
2117,-0.420,-0.445
2118,-0.430,-0.450
2119,-0.430,-0.470
2120,-0.425,-0.455
2121,-0.430,-0.450
2122,-0.425,-0.445
2123,-0.415,-0.440
2124,-0.410,-0.430
2125,-0.405,-0.430
2126,-0.400,-0.430
2127,-0.405,-0.430
2128,-0.410,-0.440
2129,-0.395,-0.445
2130,-0.405,-0.455
2131,-0.410,-0.460
2132,-0.420,-0.445
2133,-0.440,-0.450
2134,-0.450,-0.445
2135,-0.465,-0.440
2136,-0.440,-0.420
2137,-0.410,-0.420
2138,-0.335,-0.430
2139,-0.215,-0.465
2140,-0.090,-0.500
2141,0.080,-0.540
2142,0.270,-0.585
2143,0.450,-0.625
2144,0.620,-0.650
2145,0.730,-0.655
2146,0.750,-0.620
2147,0.650,-0.590
2148,0.445,-0.545
2149,0.200,-0.495
2150,-0.050,-0.440
2151,-0.250,-0.400
2152,-0.365,-0.400
2153,-0.390,-0.415
2154,-0.370,-0.445
2155,-0.330,-0.470
2156,-0.295,-0.480
2157,-0.285,-0.500
2158,-0.275,-0.495
2159,-0.280,-0.480
2160,-0.295,-0.470
2161,-0.315,-0.450
2162,-0.335,-0.445
2163,-0.340,-0.450
2164,-0.355,-0.450
2165,-0.365,-0.445
2166,-0.375,-0.460
2167,-0.380,-0.470
2168,-0.380,-0.465
2169,-0.395,-0.455
2170,-0.395,-0.450
2171,-0.390,-0.440
2172,-0.385,-0.435
2173,-0.365,-0.430
2174,-0.360,-0.425
2175,-0.370,-0.435
2176,-0.365,-0.430
2177,-0.370,-0.445
2178,-0.370,-0.450
2179,-0.385,-0.455
2180,-0.385,-0.455
2181,-0.380,-0.450
2182,-0.370,-0.435
2183,-0.370,-0.440
2184,-0.375,-0.435
2185,-0.365,-0.430
2186,-0.355,-0.430
2187,-0.360,-0.435
2188,-0.355,-0.435
2189,-0.365,-0.450
2190,-0.370,-0.460
2191,-0.375,-0.460
2192,-0.375,-0.450
2193,-0.385,-0.450
2194,-0.375,-0.445
2195,-0.365,-0.445
2196,-0.360,-0.445
2197,-0.350,-0.435
2198,-0.350,-0.445
2199,-0.350,-0.455
2200,-0.345,-0.460
2201,-0.355,-0.470
2202,-0.350,-0.465
2203,-0.370,-0.475
2204,-0.360,-0.470
2205,-0.355,-0.470
2206,-0.360,-0.470
2207,-0.345,-0.465
2208,-0.345,-0.460
2209,-0.335,-0.455
2210,-0.330,-0.455
2211,-0.330,-0.465
2212,-0.335,-0.460
2213,-0.335,-0.480
2214,-0.340,-0.490
2215,-0.345,-0.480
2216,-0.345,-0.495
2217,-0.355,-0.490
2218,-0.340,-0.485
2219,-0.335,-0.485
2220,-0.330,-0.480
2221,-0.320,-0.475
2222,-0.320,-0.460
2223,-0.320,-0.485
2224,-0.320,-0.480
2225,-0.315,-0.485
2226,-0.325,-0.495
2227,-0.330,-0.500
2228,-0.335,-0.505
2229,-0.335,-0.500
2230,-0.320,-0.500
2231,-0.310,-0.495
2232,-0.310,-0.485
2233,-0.305,-0.480
2234,-0.300,-0.480
2235,-0.295,-0.495
2236,-0.295,-0.490
2237,-0.300,-0.505
2238,-0.305,-0.510
2239,-0.305,-0.515
2240,-0.300,-0.525
2241,-0.305,-0.525
2242,-0.300,-0.510
2243,-0.285,-0.515
2244,-0.265,-0.500
2245,-0.260,-0.510
2246,-0.250,-0.505
2247,-0.245,-0.510
2248,-0.240,-0.515
2249,-0.240,-0.525
2250,-0.245,-0.535
2251,-0.240,-0.540
2252,-0.240,-0.545
2253,-0.245,-0.545
2254,-0.250,-0.535
2255,-0.235,-0.530
2256,-0.240,-0.525
2257,-0.220,-0.505
2258,-0.235,-0.510
2259,-0.215,-0.510
2260,-0.230,-0.515
2261,-0.240,-0.535
2262,-0.260,-0.530
2263,-0.270,-0.530
2264,-0.275,-0.530
2265,-0.285,-0.520
2266,-0.285,-0.515
2267,-0.275,-0.505
2268,-0.285,-0.490
2269,-0.280,-0.480
2270,-0.280,-0.485
2271,-0.285,-0.490
2272,-0.290,-0.485
2273,-0.320,-0.485
2274,-0.330,-0.490
2275,-0.330,-0.505
2276,-0.330,-0.495
2277,-0.340,-0.485
2278,-0.335,-0.475
2279,-0.335,-0.480
2280,-0.335,-0.465
2281,-0.335,-0.460
2282,-0.330,-0.455
2283,-0.340,-0.455
2284,-0.325,-0.460
2285,-0.335,-0.475
2286,-0.350,-0.480
2287,-0.355,-0.475
2288,-0.355,-0.485
2289,-0.350,-0.475
2290,-0.350,-0.470
2291,-0.350,-0.460
2292,-0.340,-0.455
2293,-0.345,-0.450
2294,-0.335,-0.455
2295,-0.350,-0.455
2296,-0.345,-0.460
2297,-0.350,-0.465
2298,-0.360,-0.480
2299,-0.375,-0.495
2300,-0.365,-0.475
2301,-0.370,-0.485
2302,-0.370,-0.470
2303,-0.360,-0.455
2304,-0.355,-0.460
2305,-0.355,-0.445
2306,-0.355,-0.450
2307,-0.350,-0.450
2308,-0.350,-0.460
2309,-0.360,-0.465
2310,-0.375,-0.470
2311,-0.375,-0.480
2312,-0.375,-0.485
2313,-0.380,-0.475
2314,-0.380,-0.470
2315,-0.370,-0.455
2316,-0.365,-0.455
2317,-0.360,-0.455
2318,-0.355,-0.460
2319,-0.360,-0.450
2320,-0.370,-0.455
2321,-0.370,-0.465
2322,-0.385,-0.470
2323,-0.390,-0.480
2324,-0.405,-0.475
2325,-0.400,-0.465
2326,-0.390,-0.465
2327,-0.380,-0.460
2328,-0.370,-0.460
2329,-0.365,-0.445
2330,-0.350,-0.455
2331,-0.335,-0.450
2332,-0.335,-0.455
2333,-0.335,-0.460
2334,-0.325,-0.460
2335,-0.335,-0.470
2336,-0.335,-0.460
2337,-0.335,-0.460
2338,-0.335,-0.445
2339,-0.325,-0.445
2340,-0.310,-0.445
2341,-0.305,-0.430
2342,-0.280,-0.435
2343,-0.275,-0.455
2344,-0.270,-0.465
2345,-0.280,-0.485
2346,-0.290,-0.500
2347,-0.310,-0.505
2348,-0.325,-0.505
2349,-0.345,-0.515
2350,-0.345,-0.510
2351,-0.350,-0.495
2352,-0.340,-0.480
2353,-0.345,-0.470
2354,-0.340,-0.470
2355,-0.340,-0.475
2356,-0.345,-0.490
2357,-0.355,-0.485
2358,-0.380,-0.490
2359,-0.390,-0.485
2360,-0.415,-0.485
2361,-0.425,-0.465
2362,-0.440,-0.465
2363,-0.440,-0.455
2364,-0.435,-0.450
2365,-0.425,-0.445
2366,-0.410,-0.445
2367,-0.405,-0.445
2368,-0.410,-0.450
2369,-0.405,-0.460
2370,-0.410,-0.460
2371,-0.425,-0.460
2372,-0.425,-0.455
2373,-0.430,-0.465
2374,-0.420,-0.455
2375,-0.415,-0.460
2376,-0.410,-0.450
2377,-0.400,-0.445
2378,-0.395,-0.440
2379,-0.400,-0.445
2380,-0.405,-0.455
2381,-0.425,-0.455
2382,-0.450,-0.460
2383,-0.470,-0.470
2384,-0.460,-0.465
2385,-0.435,-0.465
2386,-0.355,-0.470
2387,-0.245,-0.490
2388,-0.100,-0.515
2389,0.075,-0.560
2390,0.280,-0.605
2391,0.470,-0.640
2392,0.650,-0.665
2393,0.760,-0.675
2394,0.755,-0.665
2395,0.615,-0.620
2396,0.380,-0.580
2397,0.085,-0.510
2398,-0.175,-0.450
2399,-0.345,-0.410
2400,-0.425,-0.390
2401,-0.415,-0.400
2402,-0.355,-0.425
2403,-0.295,-0.460
2404,-0.270,-0.480
2405,-0.260,-0.495
2406,-0.285,-0.490
2407,-0.305,-0.485
2408,-0.335,-0.490
2409,-0.360,-0.475
2410,-0.375,-0.470
2411,-0.380,-0.455
2412,-0.385,-0.440
2413,-0.370,-0.440
2414,-0.370,-0.440
2415,-0.370,-0.445
2416,-0.370,-0.440
2417,-0.380,-0.435
2418,-0.390,-0.450
2419,-0.395,-0.465
2420,-0.400,-0.445
2421,-0.395,-0.450
2422,-0.385,-0.445
2423,-0.385,-0.440
2424,-0.380,-0.430
2425,-0.375,-0.430
2426,-0.370,-0.425
2427,-0.370,-0.430
2428,-0.375,-0.440
2429,-0.380,-0.450
2430,-0.375,-0.450
2431,-0.380,-0.450
2432,-0.385,-0.455
2433,-0.375,-0.450
2434,-0.385,-0.450
2435,-0.375,-0.445
2436,-0.375,-0.445
2437,-0.365,-0.430
2438,-0.360,-0.430
2439,-0.355,-0.430
2440,-0.360,-0.445
2441,-0.365,-0.440
2442,-0.380,-0.450
2443,-0.385,-0.460
2444,-0.385,-0.460
2445,-0.385,-0.455
2446,-0.380,-0.460
2447,-0.365,-0.445
2448,-0.360,-0.445
2449,-0.350,-0.455
2450,-0.340,-0.440
2451,-0.330,-0.445
2452,-0.340,-0.450
2453,-0.345,-0.460
2454,-0.350,-0.475
2455,-0.355,-0.485
2456,-0.355,-0.480
2457,-0.345,-0.480
2458,-0.350,-0.470
2459,-0.345,-0.480
2460,-0.350,-0.465
2461,-0.345,-0.460
2462,-0.325,-0.465
2463,-0.325,-0.460
2464,-0.325,-0.475
2465,-0.330,-0.475
2466,-0.330,-0.495
2467,-0.340,-0.500
2468,-0.350,-0.500
2469,-0.345,-0.500
2470,-0.340,-0.495
2471,-0.325,-0.495
2472,-0.325,-0.475
2473,-0.315,-0.475
2474,-0.305,-0.485
2475,-0.310,-0.480
2476,-0.315,-0.495
2477,-0.320,-0.505
2478,-0.320,-0.520
2479,-0.325,-0.525
2480,-0.325,-0.520
2481,-0.335,-0.520
2482,-0.330,-0.515
2483,-0.305,-0.510
2484,-0.315,-0.500
2485,-0.300,-0.495
2486,-0.285,-0.515
2487,-0.280,-0.525
2488,-0.275,-0.515
2489,-0.270,-0.530
2490,-0.275,-0.540
2491,-0.265,-0.555
2492,-0.270,-0.550
2493,-0.275,-0.545
2494,-0.255,-0.545
2495,-0.255,-0.535
2496,-0.250,-0.530
2497,-0.235,-0.515
2498,-0.230,-0.520
2499,-0.235,-0.535
2500,-0.240,-0.535
2501,-0.250,-0.530
2502,-0.255,-0.545
2503,-0.265,-0.535
2504,-0.280,-0.540
2505,-0.290,-0.520
2506,-0.290,-0.520
2507,-0.290,-0.520
2508,-0.300,-0.505
2509,-0.290,-0.490
2510,-0.295,-0.485
2511,-0.305,-0.485
2512,-0.305,-0.490
2513,-0.310,-0.490
2514,-0.325,-0.490
2515,-0.335,-0.485
2516,-0.345,-0.500
2517,-0.350,-0.485
2518,-0.355,-0.475
2519,-0.360,-0.475
2520,-0.350,-0.460
2521,-0.345,-0.450
2522,-0.340,-0.450
2523,-0.340,-0.450
2524,-0.340,-0.450
2525,-0.350,-0.465
2526,-0.365,-0.470
2527,-0.370,-0.475
2528,-0.375,-0.475
2529,-0.390,-0.465
2530,-0.375,-0.455
2531,-0.375,-0.465
2532,-0.355,-0.445
2533,-0.360,-0.450
2534,-0.370,-0.445
2535,-0.365,-0.445
2536,-0.375,-0.450
2537,-0.380,-0.460
2538,-0.385,-0.475
2539,-0.385,-0.470
2540,-0.390,-0.475
2541,-0.390,-0.465
2542,-0.390,-0.460
2543,-0.385,-0.445
2544,-0.375,-0.455
2545,-0.370,-0.440
2546,-0.370,-0.440
2547,-0.370,-0.445
2548,-0.375,-0.445
2549,-0.375,-0.450
2550,-0.390,-0.455
2551,-0.400,-0.465
2552,-0.400,-0.465
2553,-0.400,-0.465
2554,-0.405,-0.450
2555,-0.405,-0.440
2556,-0.400,-0.445
2557,-0.390,-0.435
2558,-0.390,-0.440
2559,-0.390,-0.435
2560,-0.390,-0.445
2561,-0.395,-0.455
2562,-0.400,-0.460
2563,-0.410,-0.460
2564,-0.410,-0.455
2565,-0.415,-0.460
2566,-0.410,-0.450
2567,-0.400,-0.445
2568,-0.395,-0.445
2569,-0.380,-0.440
2570,-0.380,-0.430
2571,-0.370,-0.440
2572,-0.365,-0.440
2573,-0.360,-0.450
2574,-0.355,-0.455
2575,-0.370,-0.465
2576,-0.360,-0.460
2577,-0.355,-0.450
2578,-0.360,-0.450
2579,-0.340,-0.445
2580,-0.340,-0.430
2581,-0.335,-0.425
2582,-0.330,-0.420
2583,-0.315,-0.430
2584,-0.300,-0.425
2585,-0.295,-0.450
2586,-0.290,-0.475
2587,-0.305,-0.475
2588,-0.320,-0.485
2589,-0.330,-0.490
2590,-0.350,-0.490
2591,-0.355,-0.485
2592,-0.365,-0.475
2593,-0.360,-0.465
2594,-0.360,-0.460
2595,-0.355,-0.470
2596,-0.355,-0.470
2597,-0.370,-0.470
2598,-0.370,-0.480
2599,-0.380,-0.480
2600,-0.390,-0.485
2601,-0.395,-0.480
2602,-0.410,-0.465
2603,-0.405,-0.450
2604,-0.425,-0.445
2605,-0.420,-0.430
2606,-0.425,-0.430
2607,-0.420,-0.425
2608,-0.420,-0.430
2609,-0.420,-0.440
2610,-0.440,-0.455
2611,-0.450,-0.460
2612,-0.450,-0.465
2613,-0.440,-0.440
2614,-0.430,-0.445
2615,-0.435,-0.435
2616,-0.425,-0.435
2617,-0.415,-0.430
2618,-0.415,-0.435
2619,-0.405,-0.450
2620,-0.410,-0.435
2621,-0.415,-0.445
2622,-0.420,-0.460
2623,-0.440,-0.460
2624,-0.465,-0.460
2625,-0.480,-0.450
2626,-0.490,-0.440
2627,-0.470,-0.445
2628,-0.410,-0.440
2629,-0.330,-0.455
2630,-0.210,-0.485
2631,-0.055,-0.535
2632,0.125,-0.590
2633,0.325,-0.645
2634,0.510,-0.670
2635,0.680,-0.710
2636,0.755,-0.705
2637,0.740,-0.675
2638,0.600,-0.630
2639,0.375,-0.575
2640,0.125,-0.500
2641,-0.120,-0.440
2642,-0.300,-0.385
2643,-0.400,-0.380
2644,-0.425,-0.385
2645,-0.390,-0.420
2646,-0.340,-0.450
2647,-0.320,-0.485
2648,-0.305,-0.495
2649,-0.310,-0.505
2650,-0.325,-0.495
2651,-0.340,-0.485
2652,-0.365,-0.455
2653,-0.370,-0.455
2654,-0.380,-0.440
2655,-0.385,-0.450
2656,-0.405,-0.460
2657,-0.395,-0.440
2658,-0.395,-0.460
2659,-0.400,-0.455
2660,-0.420,-0.460
2661,-0.420,-0.450
2662,-0.420,-0.455
2663,-0.410,-0.445
2664,-0.405,-0.430
2665,-0.405,-0.430
2666,-0.395,-0.435
2667,-0.390,-0.440
2668,-0.395,-0.450
2669,-0.405,-0.440
2670,-0.400,-0.450
2671,-0.405,-0.450
2672,-0.405,-0.465
2673,-0.410,-0.450
2674,-0.405,-0.455
2675,-0.400,-0.455
2676,-0.400,-0.440
2677,-0.400,-0.435
2678,-0.400,-0.440
2679,-0.385,-0.435
2680,-0.385,-0.435
2681,-0.390,-0.450
2682,-0.390,-0.460
2683,-0.400,-0.460
2684,-0.395,-0.465
2685,-0.410,-0.465
2686,-0.400,-0.455
2687,-0.395,-0.440
2688,-0.385,-0.445
2689,-0.380,-0.430
2690,-0.385,-0.440
2691,-0.365,-0.450
2692,-0.360,-0.460
2693,-0.365,-0.465
2694,-0.380,-0.460
2695,-0.380,-0.465
2696,-0.390,-0.480
2697,-0.380,-0.475
2698,-0.380,-0.480
2699,-0.375,-0.465
2700,-0.370,-0.460
2701,-0.355,-0.450
2702,-0.360,-0.460
2703,-0.355,-0.465
2704,-0.355,-0.460
2705,-0.360,-0.470
2706,-0.365,-0.475
2707,-0.370,-0.485
2708,-0.370,-0.495
2709,-0.380,-0.485
2710,-0.380,-0.485
2711,-0.375,-0.475
2712,-0.380,-0.475
2713,-0.360,-0.470
2714,-0.365,-0.470
2715,-0.380,-0.475
2716,-0.370,-0.470
2717,-0.380,-0.480
2718,-0.390,-0.495
2719,-0.395,-0.510
2720,-0.395,-0.500
2721,-0.400,-0.505
2722,-0.385,-0.505
2723,-0.375,-0.500
2724,-0.365,-0.490
2725,-0.355,-0.480
2726,-0.345,-0.485
2727,-0.340,-0.500
2728,-0.335,-0.490
2729,-0.335,-0.495
2730,-0.335,-0.500
2731,-0.345,-0.520
2732,-0.345,-0.525
2733,-0.345,-0.525
2734,-0.340,-0.520
2735,-0.325,-0.520
2736,-0.295,-0.515
2737,-0.290,-0.525
2738,-0.280,-0.520
2739,-0.270,-0.520
2740,-0.260,-0.525
2741,-0.260,-0.535
2742,-0.265,-0.535
2743,-0.265,-0.560
2744,-0.270,-0.550
2745,-0.275,-0.535
2746,-0.275,-0.530
2747,-0.275,-0.525
2748,-0.285,-0.520
2749,-0.280,-0.510
2750,-0.280,-0.500
2751,-0.280,-0.510
2752,-0.290,-0.500
2753,-0.300,-0.505
2754,-0.310,-0.515
2755,-0.330,-0.510
2756,-0.345,-0.505
2757,-0.345,-0.500
2758,-0.355,-0.495
2759,-0.350,-0.490
2760,-0.345,-0.480
2761,-0.350,-0.465
2762,-0.350,-0.460
2763,-0.345,-0.460
2764,-0.355,-0.465
2765,-0.370,-0.475
2766,-0.380,-0.480
2767,-0.395,-0.470
2768,-0.385,-0.485
2769,-0.390,-0.485
2770,-0.405,-0.470
2771,-0.390,-0.475
2772,-0.390,-0.455
2773,-0.385,-0.460
2774,-0.370,-0.445
2775,-0.380,-0.465
2776,-0.375,-0.450
2777,-0.380,-0.460
2778,-0.390,-0.470
2779,-0.405,-0.475
2780,-0.390,-0.475
2781,-0.405,-0.470
2782,-0.395,-0.460
2783,-0.395,-0.455
2784,-0.400,-0.450
2785,-0.390,-0.455
2786,-0.390,-0.440
2787,-0.400,-0.450
2788,-0.390,-0.450
2789,-0.405,-0.465
2790,-0.405,-0.475
2791,-0.415,-0.460
2792,-0.420,-0.465
2793,-0.425,-0.455
2794,-0.415,-0.465
2795,-0.415,-0.450
2796,-0.415,-0.455
2797,-0.405,-0.440
2798,-0.400,-0.435
2799,-0.400,-0.435
2800,-0.405,-0.450
2801,-0.405,-0.450
2802,-0.415,-0.460
2803,-0.420,-0.465
2804,-0.425,-0.470
2805,-0.420,-0.465
2806,-0.420,-0.465
2807,-0.420,-0.460
2808,-0.405,-0.445
2809,-0.400,-0.435
2810,-0.395,-0.435
2811,-0.390,-0.445
2812,-0.390,-0.450
2813,-0.385,-0.455
2814,-0.400,-0.455
2815,-0.390,-0.460
2816,-0.395,-0.460
2817,-0.385,-0.445
2818,-0.370,-0.445
2819,-0.375,-0.440
2820,-0.360,-0.430
2821,-0.355,-0.415
2822,-0.340,-0.420
2823,-0.320,-0.425
2824,-0.305,-0.430
2825,-0.300,-0.460
2826,-0.305,-0.455
2827,-0.315,-0.485
2828,-0.335,-0.495
2829,-0.360,-0.495
2830,-0.375,-0.495
2831,-0.385,-0.485
2832,-0.390,-0.475
2833,-0.390,-0.470
2834,-0.395,-0.465
2835,-0.390,-0.470
2836,-0.390,-0.475
2837,-0.385,-0.480
2838,-0.390,-0.490
2839,-0.405,-0.480
2840,-0.405,-0.485
2841,-0.425,-0.470
2842,-0.450,-0.455
2843,-0.445,-0.455
2844,-0.455,-0.440
2845,-0.445,-0.435
2846,-0.450,-0.430
2847,-0.445,-0.440
2848,-0.445,-0.430
2849,-0.440,-0.445
2850,-0.450,-0.450
2851,-0.450,-0.460
2852,-0.465,-0.450
2853,-0.455,-0.455
2854,-0.455,-0.445
2855,-0.445,-0.445
2856,-0.440,-0.435
2857,-0.435,-0.425
2858,-0.435,-0.425
2859,-0.430,-0.435
2860,-0.430,-0.440
2861,-0.455,-0.460
2862,-0.475,-0.455
2863,-0.500,-0.455
2864,-0.510,-0.460
2865,-0.500,-0.450
2866,-0.445,-0.470
2867,-0.350,-0.470
2868,-0.205,-0.510
2869,-0.025,-0.550
2870,0.200,-0.595
2871,0.450,-0.675
2872,0.695,-0.700
2873,0.850,-0.720
2874,0.885,-0.705
2875,0.745,-0.660
2876,0.485,-0.590
2877,0.165,-0.500
2878,-0.130,-0.430
2879,-0.335,-0.370
2880,-0.435,-0.345
2881,-0.440,-0.345
2882,-0.405,-0.375
2883,-0.340,-0.425
2884,-0.305,-0.460
2885,-0.310,-0.490
2886,-0.320,-0.495
2887,-0.340,-0.495
2888,-0.365,-0.485
2889,-0.400,-0.470
2890,-0.425,-0.465
2891,-0.435,-0.445
2892,-0.430,-0.445
2893,-0.415,-0.445
2894,-0.405,-0.435
2895,-0.405,-0.445
2896,-0.400,-0.435
2897,-0.405,-0.435
2898,-0.410,-0.445
2899,-0.420,-0.455
2900,-0.435,-0.450
2901,-0.435,-0.460
2902,-0.445,-0.450
2903,-0.430,-0.435
2904,-0.425,-0.425
2905,-0.415,-0.420
2906,-0.405,-0.425
2907,-0.410,-0.430
2908,-0.415,-0.430
2909,-0.400,-0.430
2910,-0.420,-0.450
2911,-0.420,-0.460
2912,-0.430,-0.460
2913,-0.430,-0.445
2914,-0.435,-0.445
2915,-0.435,-0.440
2916,-0.425,-0.440
2917,-0.415,-0.430
2918,-0.405,-0.430
2919,-0.400,-0.430
2920,-0.390,-0.440
2921,-0.385,-0.440
2922,-0.380,-0.445
2923,-0.395,-0.455
2924,-0.400,-0.460
2925,-0.410,-0.450
2926,-0.405,-0.450
2927,-0.405,-0.450
2928,-0.385,-0.440
2929,-0.375,-0.435
2930,-0.370,-0.425
2931,-0.380,-0.440
2932,-0.390,-0.440
2933,-0.390,-0.455
2934,-0.405,-0.470
2935,-0.405,-0.475
2936,-0.415,-0.470
2937,-0.420,-0.480
2938,-0.410,-0.470
2939,-0.400,-0.465
2940,-0.380,-0.470
2941,-0.380,-0.450
2942,-0.370,-0.450
2943,-0.375,-0.455
2944,-0.385,-0.475
2945,-0.380,-0.460
2946,-0.390,-0.485
2947,-0.405,-0.490
2948,-0.410,-0.500
2949,-0.405,-0.485
2950,-0.405,-0.485
2951,-0.405,-0.480
2952,-0.390,-0.475
2953,-0.375,-0.475
2954,-0.365,-0.460
2955,-0.360,-0.485
2956,-0.365,-0.475
2957,-0.360,-0.485
2958,-0.375,-0.495
2959,-0.375,-0.505
2960,-0.380,-0.495
2961,-0.390,-0.505
2962,-0.395,-0.510
2963,-0.390,-0.495
2964,-0.380,-0.485
2965,-0.360,-0.490
2966,-0.340,-0.490
2967,-0.335,-0.490
2968,-0.325,-0.500
2969,-0.325,-0.505
2970,-0.315,-0.515
2971,-0.315,-0.525
2972,-0.310,-0.540
2973,-0.310,-0.540
2974,-0.305,-0.530
2975,-0.295,-0.530
2976,-0.290,-0.515
2977,-0.285,-0.510
2978,-0.285,-0.505
2979,-0.280,-0.500
2980,-0.270,-0.515
2981,-0.285,-0.515
2982,-0.290,-0.515
2983,-0.305,-0.530
2984,-0.305,-0.520
2985,-0.310,-0.520
2986,-0.320,-0.505
2987,-0.320,-0.500
2988,-0.325,-0.490
2989,-0.330,-0.485
2990,-0.320,-0.470
2991,-0.335,-0.485
2992,-0.335,-0.470
2993,-0.350,-0.490
2994,-0.350,-0.490
2995,-0.365,-0.490
2996,-0.360,-0.485
2997,-0.375,-0.480
2998,-0.380,-0.475
2999,-0.375,-0.475
3000,-0.375,-0.450
3001,-0.375,-0.440
3002,-0.365,-0.435
3003,-0.370,-0.445
3004,-0.375,-0.440
3005,-0.375,-0.455
3006,-0.385,-0.455
3007,-0.390,-0.460
3008,-0.410,-0.470
3009,-0.420,-0.460
3010,-0.410,-0.450
3011,-0.400,-0.440
3012,-0.400,-0.450
3013,-0.390,-0.425
3014,-0.370,-0.425
3015,-0.370,-0.425
3016,-0.375,-0.430
3017,-0.390,-0.430
3018,-0.400,-0.430
3019,-0.410,-0.455
3020,-0.415,-0.445
3021,-0.415,-0.435
3022,-0.415,-0.440
3023,-0.415,-0.425
3024,-0.405,-0.425
3025,-0.405,-0.415
3026,-0.395,-0.415
3027,-0.395,-0.420
3028,-0.385,-0.415
3029,-0.400,-0.425
3030,-0.395,-0.435
3031,-0.405,-0.440
3032,-0.415,-0.450
3033,-0.425,-0.445
3034,-0.420,-0.430
3035,-0.425,-0.430
3036,-0.425,-0.425
3037,-0.430,-0.415
3038,-0.420,-0.415
3039,-0.420,-0.415
3040,-0.420,-0.415
3041,-0.420,-0.425
3042,-0.425,-0.435
3043,-0.425,-0.440
3044,-0.430,-0.445
3045,-0.440,-0.435
3046,-0.450,-0.435
3047,-0.445,-0.430
3048,-0.445,-0.415
3049,-0.440,-0.405
3050,-0.430,-0.410
3051,-0.405,-0.415
3052,-0.390,-0.410
3053,-0.370,-0.415
3054,-0.365,-0.420
3055,-0.365,-0.425
3056,-0.365,-0.420
3057,-0.380,-0.415
3058,-0.390,-0.410
3059,-0.385,-0.410
3060,-0.390,-0.395
3061,-0.365,-0.395
3062,-0.355,-0.385
3063,-0.345,-0.390
3064,-0.335,-0.410
3065,-0.340,-0.420
3066,-0.345,-0.435
3067,-0.360,-0.455
3068,-0.360,-0.460
3069,-0.380,-0.455
3070,-0.375,-0.460
3071,-0.375,-0.450
3072,-0.385,-0.440
3073,-0.385,-0.430
3074,-0.390,-0.425
3075,-0.395,-0.430
3076,-0.400,-0.435
3077,-0.400,-0.440
3078,-0.410,-0.435
3079,-0.415,-0.445
3080,-0.445,-0.440
3081,-0.455,-0.440
3082,-0.465,-0.420
3083,-0.470,-0.415
3084,-0.470,-0.410
3085,-0.455,-0.400
3086,-0.445,-0.395
3087,-0.450,-0.415
3088,-0.440,-0.400
3089,-0.450,-0.400
3090,-0.450,-0.405
3091,-0.470,-0.420
3092,-0.465,-0.425
3093,-0.470,-0.410
3094,-0.465,-0.425
3095,-0.460,-0.415
3096,-0.460,-0.420
3097,-0.455,-0.405
3098,-0.450,-0.400
3099,-0.460,-0.400
3100,-0.460,-0.400
3101,-0.490,-0.415
3102,-0.520,-0.420
3103,-0.535,-0.430
3104,-0.520,-0.420
3105,-0.480,-0.430
3106,-0.380,-0.450
3107,-0.250,-0.470
3108,-0.065,-0.495
3109,0.150,-0.540
3110,0.390,-0.575
3111,0.630,-0.625
3112,0.825,-0.630
3113,0.930,-0.625
3114,0.885,-0.600
3115,0.700,-0.555
3116,0.410,-0.485
3117,0.065,-0.420
3118,-0.225,-0.375
3119,-0.425,-0.330
3120,-0.500,-0.300
3121,-0.500,-0.300
3122,-0.435,-0.325
3123,-0.390,-0.360
3124,-0.350,-0.400
3125,-0.335,-0.430
3126,-0.360,-0.445
3127,-0.370,-0.450
3128,-0.395,-0.460
3129,-0.410,-0.450
3130,-0.430,-0.425
3131,-0.435,-0.430
3132,-0.440,-0.425
3133,-0.425,-0.405
3134,-0.400,-0.405
3135,-0.410,-0.415
3136,-0.410,-0.410
3137,-0.410,-0.420
3138,-0.420,-0.425
3139,-0.435,-0.430
3140,-0.445,-0.430
3141,-0.450,-0.430
3142,-0.455,-0.425
3143,-0.455,-0.425
3144,-0.455,-0.410
3145,-0.455,-0.415
3146,-0.430,-0.400
3147,-0.435,-0.410
3148,-0.435,-0.405
3149,-0.425,-0.410
3150,-0.420,-0.415
3151,-0.430,-0.430
3152,-0.440,-0.450
3153,-0.440,-0.430
3154,-0.435,-0.435
3155,-0.425,-0.425
3156,-0.425,-0.420
3157,-0.420,-0.420
3158,-0.405,-0.410
3159,-0.410,-0.425
3160,-0.405,-0.415
3161,-0.395,-0.420
3162,-0.400,-0.430
3163,-0.400,-0.430
3164,-0.410,-0.445
3165,-0.420,-0.440
3166,-0.420,-0.440
3167,-0.405,-0.420
3168,-0.410,-0.435
3169,-0.395,-0.420
3170,-0.385,-0.415
3171,-0.395,-0.430
3172,-0.385,-0.425
3173,-0.390,-0.425
3174,-0.395,-0.430
3175,-0.390,-0.445
3176,-0.400,-0.450
3177,-0.405,-0.455
3178,-0.405,-0.455
3179,-0.400,-0.445
3180,-0.395,-0.445
3181,-0.375,-0.435
3182,-0.375,-0.425
3183,-0.370,-0.440
3184,-0.370,-0.440
3185,-0.380,-0.445
3186,-0.390,-0.455
3187,-0.400,-0.470
3188,-0.405,-0.470
3189,-0.400,-0.475
3190,-0.400,-0.480
3191,-0.390,-0.465
3192,-0.400,-0.460
3193,-0.385,-0.455
3194,-0.385,-0.455
3195,-0.380,-0.455
3196,-0.375,-0.460
3197,-0.390,-0.470
3198,-0.385,-0.490
3199,-0.400,-0.485
3200,-0.400,-0.495
3201,-0.400,-0.495
3202,-0.410,-0.490
3203,-0.395,-0.495
3204,-0.390,-0.480
3205,-0.380,-0.485
3206,-0.365,-0.470
3207,-0.360,-0.490
3208,-0.345,-0.485
3209,-0.345,-0.500
3210,-0.335,-0.505
3211,-0.335,-0.515
3212,-0.325,-0.510
3213,-0.320,-0.515
3214,-0.325,-0.515
3215,-0.325,-0.500
3216,-0.305,-0.495
3217,-0.305,-0.500
3218,-0.300,-0.480
3219,-0.285,-0.485
3220,-0.285,-0.490
3221,-0.290,-0.490
3222,-0.305,-0.500
3223,-0.320,-0.500
3224,-0.330,-0.505
3225,-0.330,-0.495
3226,-0.350,-0.485
3227,-0.350,-0.475
3228,-0.335,-0.465
3229,-0.330,-0.455
3230,-0.330,-0.460
3231,-0.340,-0.460
3232,-0.340,-0.445
3233,-0.355,-0.460
3234,-0.370,-0.465
3235,-0.380,-0.465
3236,-0.385,-0.470
3237,-0.390,-0.465
3238,-0.395,-0.455
3239,-0.385,-0.450
3240,-0.385,-0.435
3241,-0.390,-0.435
3242,-0.380,-0.420
3243,-0.385,-0.425
3244,-0.385,-0.420
3245,-0.380,-0.420
3246,-0.385,-0.430
3247,-0.400,-0.430
3248,-0.400,-0.440
3249,-0.405,-0.445
3250,-0.405,-0.435
3251,-0.395,-0.425
3252,-0.390,-0.415
3253,-0.395,-0.415
3254,-0.380,-0.400
3255,-0.385,-0.425
3256,-0.390,-0.430
3257,-0.385,-0.430
3258,-0.405,-0.425
3259,-0.405,-0.430
3260,-0.415,-0.435
3261,-0.410,-0.430
3262,-0.420,-0.425
3263,-0.415,-0.415
3264,-0.415,-0.410
3265,-0.420,-0.405
3266,-0.400,-0.410
3267,-0.405,-0.405
3268,-0.395,-0.405
3269,-0.400,-0.410
3270,-0.415,-0.415
3271,-0.415,-0.430
3272,-0.425,-0.425
3273,-0.425,-0.415
3274,-0.425,-0.425
3275,-0.425,-0.415
3276,-0.415,-0.410
3277,-0.415,-0.405
3278,-0.410,-0.385
3279,-0.410,-0.395
3280,-0.410,-0.405
3281,-0.410,-0.405
3282,-0.415,-0.420
3283,-0.420,-0.415
3284,-0.425,-0.420
3285,-0.430,-0.420
3286,-0.435,-0.420
3287,-0.425,-0.400
3288,-0.425,-0.400
3289,-0.405,-0.395
3290,-0.400,-0.390
3291,-0.395,-0.395
3292,-0.375,-0.390
3293,-0.375,-0.390
3294,-0.365,-0.405
3295,-0.365,-0.400
3296,-0.360,-0.400
3297,-0.370,-0.410
3298,-0.375,-0.400
3299,-0.360,-0.395
3300,-0.360,-0.380
3301,-0.355,-0.375
3302,-0.330,-0.380
3303,-0.315,-0.385
3304,-0.305,-0.400
3305,-0.305,-0.415
3306,-0.310,-0.425
3307,-0.320,-0.445
3308,-0.345,-0.450
3309,-0.355,-0.455
3310,-0.365,-0.450
3311,-0.360,-0.435
3312,-0.365,-0.435
3313,-0.360,-0.415
3314,-0.355,-0.420
3315,-0.350,-0.435
3316,-0.360,-0.420
3317,-0.360,-0.425
3318,-0.375,-0.430
3319,-0.390,-0.440
3320,-0.400,-0.435
3321,-0.415,-0.430
3322,-0.430,-0.425
3323,-0.435,-0.410
3324,-0.445,-0.395
3325,-0.430,-0.400
3326,-0.435,-0.395
3327,-0.430,-0.390
3328,-0.435,-0.385
3329,-0.415,-0.395
3330,-0.425,-0.395
3331,-0.430,-0.415
3332,-0.435,-0.420
3333,-0.435,-0.415
3334,-0.445,-0.415
3335,-0.435,-0.410
3336,-0.425,-0.395
3337,-0.420,-0.390
3338,-0.410,-0.385
3339,-0.405,-0.395
3340,-0.415,-0.395
3341,-0.425,-0.400
3342,-0.445,-0.405
3343,-0.480,-0.410
3344,-0.500,-0.415
3345,-0.500,-0.405
3346,-0.450,-0.415
3347,-0.355,-0.425
3348,-0.230,-0.450
3349,-0.040,-0.480
3350,0.185,-0.530
3351,0.420,-0.585
3352,0.655,-0.600
3353,0.835,-0.615
3354,0.900,-0.610
3355,0.815,-0.580
3356,0.590,-0.530
3357,0.275,-0.475
3358,-0.045,-0.420
3359,-0.295,-0.375
3360,-0.440,-0.335
3361,-0.470,-0.340
3362,-0.415,-0.355
3363,-0.355,-0.400
3364,-0.295,-0.425
3365,-0.270,-0.450
3366,-0.270,-0.460
3367,-0.290,-0.475
3368,-0.310,-0.480
3369,-0.335,-0.445
3370,-0.360,-0.430
3371,-0.375,-0.440
3372,-0.375,-0.420
3373,-0.370,-0.420
3374,-0.365,-0.405
3375,-0.355,-0.410
3376,-0.365,-0.425
3377,-0.370,-0.415
3378,-0.370,-0.410
3379,-0.385,-0.430
3380,-0.390,-0.435
3381,-0.395,-0.425
3382,-0.405,-0.435
3383,-0.400,-0.415
3384,-0.395,-0.410
3385,-0.390,-0.405
3386,-0.365,-0.395
3387,-0.365,-0.400
3388,-0.370,-0.420
3389,-0.370,-0.415
3390,-0.370,-0.425
3391,-0.385,-0.430
3392,-0.385,-0.440
3393,-0.390,-0.435
3394,-0.390,-0.430
3395,-0.385,-0.425
3396,-0.370,-0.415
3397,-0.360,-0.410
3398,-0.350,-0.410
3399,-0.350,-0.405
3400,-0.350,-0.415
3401,-0.350,-0.415
3402,-0.355,-0.435
3403,-0.355,-0.435
3404,-0.375,-0.450
3405,-0.360,-0.440
3406,-0.365,-0.440
3407,-0.370,-0.440
3408,-0.360,-0.420
3409,-0.345,-0.425
3410,-0.340,-0.415
3411,-0.345,-0.435
3412,-0.340,-0.435
3413,-0.345,-0.445
3414,-0.340,-0.450
3415,-0.350,-0.460
3416,-0.370,-0.470
3417,-0.355,-0.465
3418,-0.360,-0.460
3419,-0.360,-0.460
3420,-0.355,-0.455
3421,-0.355,-0.445
3422,-0.345,-0.445
3423,-0.345,-0.450
3424,-0.335,-0.445
3425,-0.340,-0.455
3426,-0.345,-0.470
3427,-0.360,-0.470
3428,-0.355,-0.485
3429,-0.365,-0.485
3430,-0.365,-0.475
3431,-0.360,-0.475
3432,-0.355,-0.465
3433,-0.345,-0.465
3434,-0.335,-0.465
3435,-0.335,-0.455
3436,-0.340,-0.470
3437,-0.345,-0.480
3438,-0.350,-0.490
3439,-0.360,-0.490
3440,-0.345,-0.500
3441,-0.350,-0.500
3442,-0.355,-0.505
3443,-0.350,-0.495
3444,-0.330,-0.490
3445,-0.320,-0.485
3446,-0.305,-0.475
3447,-0.290,-0.485
3448,-0.275,-0.495
3449,-0.270,-0.495
3450,-0.265,-0.510
3451,-0.260,-0.520
3452,-0.270,-0.525
3453,-0.270,-0.525
3454,-0.265,-0.515
3455,-0.250,-0.525
3456,-0.245,-0.515
3457,-0.245,-0.500
3458,-0.245,-0.500
3459,-0.235,-0.490
3460,-0.235,-0.490
3461,-0.245,-0.500
3462,-0.260,-0.500
3463,-0.270,-0.510
3464,-0.285,-0.510
3465,-0.295,-0.500
3466,-0.300,-0.495
3467,-0.300,-0.480
3468,-0.300,-0.485
3469,-0.300,-0.480
3470,-0.300,-0.465
3471,-0.300,-0.465
3472,-0.310,-0.465
3473,-0.305,-0.465
3474,-0.325,-0.480
3475,-0.330,-0.485
3476,-0.345,-0.475
3477,-0.350,-0.475
3478,-0.350,-0.470
3479,-0.355,-0.465
3480,-0.345,-0.450
3481,-0.345,-0.455
3482,-0.340,-0.445
3483,-0.335,-0.450
3484,-0.345,-0.445
3485,-0.350,-0.440
3486,-0.360,-0.450
3487,-0.355,-0.465
3488,-0.365,-0.465
3489,-0.370,-0.465
3490,-0.375,-0.470
3491,-0.365,-0.455
3492,-0.365,-0.445
3493,-0.365,-0.435
3494,-0.360,-0.430
3495,-0.350,-0.440
3496,-0.355,-0.440
3497,-0.360,-0.435
3498,-0.365,-0.445
3499,-0.370,-0.445
3500,-0.385,-0.465
3501,-0.385,-0.455
3502,-0.395,-0.455
3503,-0.385,-0.440
3504,-0.385,-0.435
3505,-0.365,-0.430
3506,-0.375,-0.420
3507,-0.365,-0.430
3508,-0.375,-0.435
3509,-0.380,-0.440
3510,-0.380,-0.450
3511,-0.385,-0.455
3512,-0.395,-0.455
3513,-0.395,-0.455
3514,-0.395,-0.450
3515,-0.400,-0.445
3516,-0.395,-0.445
3517,-0.395,-0.435
3518,-0.385,-0.425
3519,-0.380,-0.425
3520,-0.385,-0.435
3521,-0.375,-0.440
3522,-0.400,-0.445
3523,-0.410,-0.460
3524,-0.410,-0.455
3525,-0.405,-0.450
3526,-0.415,-0.440
3527,-0.390,-0.440
3528,-0.385,-0.440
3529,-0.370,-0.420
3530,-0.355,-0.420
3531,-0.345,-0.420
3532,-0.340,-0.410
3533,-0.335,-0.415
3534,-0.325,-0.425
3535,-0.335,-0.425
3536,-0.340,-0.430
3537,-0.345,-0.430
3538,-0.340,-0.435
3539,-0.335,-0.430
3540,-0.300,-0.430
3541,-0.295,-0.425
3542,-0.270,-0.430
3543,-0.275,-0.435
3544,-0.270,-0.455
3545,-0.285,-0.465
3546,-0.310,-0.480
3547,-0.330,-0.495
3548,-0.345,-0.495
3549,-0.360,-0.500
3550,-0.360,-0.475
3551,-0.360,-0.480
3552,-0.350,-0.465
3553,-0.340,-0.460
3554,-0.345,-0.450
3555,-0.350,-0.450
3556,-0.345,-0.460
3557,-0.355,-0.460
3558,-0.370,-0.475
3559,-0.390,-0.470
3560,-0.415,-0.475
3561,-0.430,-0.465
3562,-0.440,-0.450
3563,-0.450,-0.450
3564,-0.445,-0.445
3565,-0.435,-0.430
3566,-0.415,-0.435
3567,-0.420,-0.435
3568,-0.415,-0.435
3569,-0.420,-0.430
3570,-0.425,-0.445
3571,-0.420,-0.450
3572,-0.420,-0.460
3573,-0.425,-0.450
3574,-0.430,-0.455
3575,-0.420,-0.445
3576,-0.420,-0.440
3577,-0.410,-0.425
3578,-0.405,-0.425
3579,-0.405,-0.440
3580,-0.410,-0.430
3581,-0.420,-0.440
3582,-0.445,-0.430
3583,-0.475,-0.440
3584,-0.485,-0.440
3585,-0.485,-0.445
3586,-0.440,-0.450
3587,-0.350,-0.450
3588,-0.215,-0.490
3589,-0.080,-0.520
3590,0.105,-0.550
3591,0.295,-0.605
3592,0.515,-0.650
3593,0.695,-0.670
3594,0.830,-0.685
3595,0.850,-0.670
3596,0.745,-0.635
3597,0.530,-0.600
3598,0.245,-0.540
3599,-0.040,-0.475
