0,-0.285,0.050
1,-0.285,0.050
2,-0.285,0.050
3,-0.285,0.050
4,-0.285,0.050
5,-0.285,0.050
6,-0.285,0.050
7,-0.285,0.050
8,-0.290,0.050
9,-0.280,0.050
10,-0.300,0.055
11,-0.305,0.035
12,-0.320,0.015
13,-0.325,0.035
14,-0.315,0.055
15,-0.285,0.075
16,-0.285,0.065
17,-0.310,0.050
18,-0.320,0.035
19,-0.340,0.050
20,-0.325,0.075
21,-0.310,0.080
22,-0.315,0.080
23,-0.325,0.070
24,-0.335,0.065
25,-0.335,0.065
26,-0.305,0.085
27,-0.305,0.095
28,-0.305,0.085
29,-0.310,0.080
30,-0.325,0.070
31,-0.325,0.075
32,-0.320,0.085
33,-0.310,0.090
34,-0.295,0.085
35,-0.305,0.080
36,-0.315,0.060
37,-0.330,0.070
38,-0.335,0.080
39,-0.295,0.100
40,-0.300,0.085
41,-0.320,0.065
42,-0.330,0.055
43,-0.345,0.060
44,-0.340,0.080
45,-0.335,0.090
46,-0.325,0.070
47,-0.335,0.055
48,-0.340,0.040
49,-0.355,0.045
50,-0.330,0.050
51,-0.315,0.050
52,-0.305,0.050
53,-0.305,0.040
54,-0.330,0.025
55,-0.325,0.020
56,-0.310,0.030
57,-0.300,0.045
58,-0.290,0.035
59,-0.310,0.025
60,-0.320,-0.005
61,-0.325,0.010
62,-0.320,0.020
63,-0.290,0.030
64,-0.290,0.020
65,-0.295,0.005
66,-0.330,-0.010
67,-0.315,-0.010
68,-0.290,0.000
69,-0.270,0.005
70,-0.270,-0.020
71,-0.280,-0.030
72,-0.290,-0.050
73,-0.295,-0.055
74,-0.275,-0.060
75,-0.265,-0.045
76,-0.255,-0.050
77,-0.260,-0.065
78,-0.270,-0.085
79,-0.275,-0.100
80,-0.275,-0.100
81,-0.235,-0.075
82,-0.235,-0.085
83,-0.235,-0.095
84,-0.250,-0.105
85,-0.240,-0.105
86,-0.225,-0.105
87,-0.210,-0.115
88,-0.200,-0.110
89,-0.200,-0.125
90,-0.195,-0.135
91,-0.200,-0.145
92,-0.175,-0.145
93,-0.160,-0.125
94,-0.155,-0.125
95,-0.175,-0.135
96,-0.150,-0.130
97,-0.160,-0.130
98,-0.140,-0.110
99,-0.120,-0.105
100,-0.110,-0.115
101,-0.120,-0.115
102,-0.140,-0.110
103,-0.140,-0.100
104,-0.125,-0.055
105,-0.110,-0.035
106,-0.120,-0.020
107,-0.140,-0.025
108,-0.150,-0.005
109,-0.155,0.010
110,-0.145,0.040
111,-0.140,0.070
112,-0.140,0.080
113,-0.185,0.080
114,-0.185,0.080
115,-0.200,0.095
116,-0.185,0.095
117,-0.170,0.110
118,-0.175,0.100
119,-0.210,0.080
120,-0.220,0.065
121,-0.230,0.075
122,-0.215,0.085
123,-0.200,0.100
124,-0.210,0.085
125,-0.225,0.070
126,-0.245,0.065
127,-0.225,0.070
128,-0.230,0.090
129,-0.220,0.110
130,-0.215,0.095
131,-0.225,0.080
132,-0.245,0.065
133,-0.245,0.080
134,-0.215,0.075
135,-0.210,0.095
136,-0.210,0.085
137,-0.210,0.090
138,-0.225,0.085
139,-0.220,0.090
140,-0.215,0.105
141,-0.210,0.110
142,-0.210,0.085
143,-0.215,0.090
144,-0.230,0.075
145,-0.225,0.080
146,-0.220,0.090
147,-0.205,0.100
148,-0.200,0.100
149,-0.210,0.085
150,-0.210,0.075
151,-0.215,0.080
152,-0.210,0.090
153,-0.175,0.105
154,-0.170,0.080
155,-0.175,0.060
156,-0.205,0.075
157,-0.215,0.075
158,-0.210,0.075
159,-0.180,0.070
160,-0.175,0.055
161,-0.180,0.050
162,-0.195,0.045
163,-0.190,0.055
164,-0.205,0.055
165,-0.190,0.050
166,-0.205,0.030
167,-0.195,0.015
168,-0.195,0.005
169,-0.200,0.005
170,-0.195,0.010
171,-0.185,0.030
172,-0.185,0.025
173,-0.190,0.030
174,-0.205,0.015
175,-0.205,0.030
176,-0.205,0.040
177,-0.190,0.050
178,-0.200,0.045
179,-0.215,0.035
180,-0.225,0.020
181,-0.235,0.045
182,-0.225,0.065
183,-0.215,0.080
184,-0.205,0.070
185,-0.200,0.045
186,-0.210,0.035
187,-0.210,0.045
188,-0.205,0.070
189,-0.210,0.090
190,-0.200,0.085
191,-0.215,0.080
192,-0.220,0.060
193,-0.225,0.065
194,-0.215,0.070
195,-0.225,0.090
196,-0.205,0.085
197,-0.220,0.070
198,-0.220,0.070
199,-0.230,0.080
200,-0.220,0.110
201,-0.210,0.120
202,-0.200,0.120
203,-0.215,0.110
204,-0.215,0.105
205,-0.210,0.120
206,-0.190,0.125
207,-0.185,0.135
208,-0.170,0.115
209,-0.150,0.090
210,-0.110,0.055
211,-0.045,0.030
212,0.035,0.020
213,0.150,0.030
214,0.295,0.025
215,0.445,-0.005
216,0.640,-0.055
217,0.855,-0.085
218,1.080,-0.105
219,1.280,-0.095
220,1.415,-0.050
221,1.445,0.025
222,1.355,0.085
223,1.130,0.090
224,0.815,0.110
225,0.480,0.150
226,0.130,0.210
227,-0.190,0.260
228,-0.395,0.260
229,-0.415,0.245
230,-0.360,0.215
231,-0.285,0.175
232,-0.255,0.115
233,-0.265,0.075
234,-0.285,0.045
235,-0.290,0.060
236,-0.265,0.070
237,-0.250,0.090
238,-0.290,0.095
239,-0.285,0.085
240,-0.310,0.085
241,-0.315,0.100
242,-0.305,0.115
243,-0.295,0.110
244,-0.325,0.080
245,-0.320,0.085
246,-0.335,0.075
247,-0.335,0.085
248,-0.325,0.095
249,-0.315,0.105
250,-0.325,0.090
251,-0.335,0.095
252,-0.360,0.090
253,-0.375,0.110
254,-0.370,0.110
255,-0.325,0.130
256,-0.315,0.120
257,-0.320,0.095
258,-0.320,0.075
259,-0.335,0.075
260,-0.345,0.085
261,-0.310,0.100
262,-0.315,0.095
263,-0.320,0.080
264,-0.320,0.065
265,-0.345,0.075
266,-0.330,0.100
267,-0.320,0.105
268,-0.310,0.100
269,-0.320,0.070
270,-0.335,0.070
271,-0.325,0.065
272,-0.315,0.065
273,-0.295,0.085
274,-0.300,0.075
275,-0.300,0.070
276,-0.305,0.045
277,-0.280,0.040
278,-0.270,0.060
279,-0.265,0.075
280,-0.270,0.060
281,-0.270,0.050
282,-0.280,0.020
283,-0.275,0.025
284,-0.250,0.030
285,-0.240,0.035
286,-0.225,0.020
287,-0.240,0.005
288,-0.240,0.000
289,-0.245,-0.005
290,-0.240,0.010
291,-0.220,0.010
292,-0.215,-0.005
293,-0.230,-0.010
294,-0.235,-0.045
295,-0.240,-0.030
296,-0.215,-0.040
297,-0.210,-0.030
298,-0.190,-0.035
299,-0.190,-0.060
300,-0.200,-0.085
301,-0.185,-0.075
302,-0.185,-0.070
303,-0.160,-0.060
304,-0.160,-0.065
305,-0.150,-0.090
306,-0.175,-0.095
307,-0.155,-0.095
308,-0.140,-0.090
309,-0.115,-0.075
310,-0.110,-0.075
311,-0.120,-0.095
312,-0.115,-0.100
313,-0.105,-0.105
314,-0.090,-0.085
315,-0.075,-0.080
316,-0.075,-0.075
317,-0.095,-0.100
318,-0.120,-0.090
319,-0.120,-0.085
320,-0.105,-0.045
321,-0.105,-0.050
322,-0.115,-0.045
323,-0.120,-0.060
324,-0.145,-0.060
325,-0.145,-0.025
326,-0.145,0.000
327,-0.145,0.025
328,-0.170,0.030
329,-0.185,0.015
330,-0.215,0.030
331,-0.215,0.040
332,-0.215,0.075
333,-0.195,0.085
334,-0.190,0.095
335,-0.230,0.100
336,-0.240,0.095
337,-0.220,0.110
338,-0.225,0.130
339,-0.230,0.130
340,-0.215,0.125
341,-0.230,0.110
342,-0.245,0.110
343,-0.255,0.120
344,-0.260,0.140
345,-0.245,0.150
346,-0.225,0.145
347,-0.240,0.135
348,-0.250,0.120
349,-0.260,0.125
350,-0.245,0.135
351,-0.215,0.135
352,-0.215,0.125
353,-0.210,0.110
354,-0.225,0.100
355,-0.225,0.120
356,-0.215,0.140
357,-0.205,0.150
358,-0.200,0.120
359,-0.220,0.110
360,-0.225,0.095
361,-0.220,0.110
362,-0.225,0.125
363,-0.220,0.135
364,-0.200,0.115
365,-0.205,0.100
366,-0.215,0.100
367,-0.225,0.105
368,-0.215,0.105
369,-0.200,0.120
370,-0.215,0.110
371,-0.230,0.080
372,-0.260,0.065
373,-0.260,0.075
374,-0.225,0.085
375,-0.225,0.095
376,-0.220,0.085
377,-0.230,0.075
378,-0.230,0.060
379,-0.230,0.075
380,-0.220,0.090
381,-0.210,0.100
382,-0.210,0.100
383,-0.230,0.080
384,-0.230,0.065
385,-0.235,0.075
386,-0.220,0.085
387,-0.195,0.105
388,-0.185,0.095
389,-0.200,0.095
390,-0.225,0.100
391,-0.210,0.090
392,-0.215,0.090
393,-0.185,0.090
394,-0.160,0.095
395,-0.175,0.080
396,-0.200,0.090
397,-0.195,0.110
398,-0.185,0.110
399,-0.165,0.115
400,-0.180,0.105
401,-0.175,0.085
402,-0.175,0.080
403,-0.185,0.105
404,-0.175,0.115
405,-0.175,0.115
406,-0.175,0.105
407,-0.185,0.090
408,-0.205,0.075
409,-0.200,0.085
410,-0.200,0.105
411,-0.200,0.120
412,-0.185,0.105
413,-0.190,0.090
414,-0.210,0.075
415,-0.210,0.090
416,-0.195,0.100
417,-0.185,0.115
418,-0.175,0.095
419,-0.195,0.080
420,-0.220,0.085
421,-0.200,0.080
422,-0.215,0.100
423,-0.180,0.095
424,-0.180,0.085
425,-0.205,0.090
426,-0.205,0.085
427,-0.210,0.080
428,-0.185,0.095
429,-0.165,0.110
430,-0.145,0.090
431,-0.125,0.060
432,-0.100,0.045
433,-0.040,0.050
434,0.050,0.050
435,0.165,0.060
436,0.290,0.045
437,0.440,0.020
438,0.610,-0.020
439,0.810,-0.070
440,1.030,-0.100
441,1.235,-0.080
442,1.375,-0.070
443,1.435,0.005
444,1.380,0.070
445,1.185,0.110
446,0.915,0.130
447,0.615,0.165
448,0.300,0.205
449,-0.015,0.225
450,-0.235,0.240
451,-0.325,0.240
452,-0.305,0.245
453,-0.235,0.205
454,-0.200,0.150
455,-0.190,0.110
456,-0.185,0.095
457,-0.190,0.100
458,-0.190,0.105
459,-0.200,0.105
460,-0.205,0.110
461,-0.225,0.110
462,-0.280,0.090
463,-0.250,0.085
464,-0.255,0.100
465,-0.245,0.105
466,-0.260,0.115
467,-0.280,0.090
468,-0.295,0.070
469,-0.295,0.080
470,-0.285,0.100
471,-0.280,0.100
472,-0.260,0.105
473,-0.285,0.075
474,-0.300,0.080
475,-0.305,0.095
476,-0.290,0.105
477,-0.270,0.095
478,-0.270,0.085
479,-0.280,0.080
480,-0.300,0.075
481,-0.310,0.075
482,-0.300,0.070
483,-0.270,0.080
484,-0.270,0.075
485,-0.285,0.070
486,-0.295,0.070
487,-0.295,0.070
488,-0.280,0.080
489,-0.260,0.080
490,-0.260,0.075
491,-0.260,0.065
492,-0.270,0.060
493,-0.275,0.075
494,-0.265,0.085
495,-0.245,0.095
496,-0.235,0.080
497,-0.255,0.080
498,-0.255,0.070
499,-0.255,0.090
500,-0.225,0.085
501,-0.200,0.105
502,-0.200,0.100
503,-0.205,0.085
504,-0.220,0.085
505,-0.220,0.080
506,-0.210,0.095
507,-0.215,0.090
508,-0.210,0.095
509,-0.180,0.075
510,-0.200,0.055
511,-0.205,0.045
512,-0.195,0.055
513,-0.175,0.070
514,-0.165,0.050
515,-0.180,0.035
516,-0.165,0.025
517,-0.160,0.020
518,-0.145,0.030
519,-0.155,0.025
520,-0.145,0.010
521,-0.145,-0.020
522,-0.160,-0.030
523,-0.150,-0.035
524,-0.150,-0.040
525,-0.140,-0.040
526,-0.130,-0.040
527,-0.155,-0.055
528,-0.155,-0.070
529,-0.130,-0.075
530,-0.120,-0.070
531,-0.095,-0.060
532,-0.100,-0.060
533,-0.105,-0.100
534,-0.110,-0.110
535,-0.120,-0.105
536,-0.100,-0.110
537,-0.060,-0.090
538,-0.055,-0.105
539,-0.055,-0.100
540,-0.060,-0.105
541,-0.055,-0.095
542,-0.040,-0.065
543,-0.020,-0.050
544,-0.015,-0.055
545,-0.025,-0.050
546,-0.040,-0.040
547,-0.055,-0.035
548,-0.040,0.000
549,-0.020,0.005
550,-0.040,0.010
551,-0.040,0.000
552,-0.050,0.010
553,-0.070,0.045
554,-0.060,0.070
555,-0.065,0.075
556,-0.070,0.075
557,-0.085,0.065
558,-0.105,0.065
559,-0.120,0.085
560,-0.125,0.120
561,-0.115,0.140
562,-0.135,0.145
563,-0.165,0.135
564,-0.190,0.130
565,-0.190,0.135
566,-0.170,0.140
567,-0.165,0.140
568,-0.180,0.140
569,-0.200,0.110
570,-0.210,0.115
571,-0.225,0.110
572,-0.210,0.120
573,-0.175,0.145
574,-0.180,0.135
575,-0.200,0.115
576,-0.205,0.115
577,-0.180,0.135
578,-0.130,0.140
579,-0.105,0.140
580,-0.080,0.145
581,-0.065,0.140
582,-0.060,0.140
583,-0.030,0.170
584,0.005,0.185
585,0.045,0.190
586,0.085,0.190
587,0.140,0.165
588,0.205,0.135
589,0.270,0.075
590,0.340,-0.005
591,0.415,-0.060
592,0.500,-0.125
593,0.575,-0.210
594,0.640,-0.285
595,0.710,-0.375
596,0.790,-0.450
597,0.885,-0.550
598,0.975,-0.675
599,1.060,-0.790
600,1.130,-0.875
601,1.180,-0.940
602,1.220,-0.980
603,1.215,-0.995
604,1.195,-1.015
605,1.150,-1.040
606,1.105,-1.070
607,1.030,-1.085
608,0.970,-1.075
609,0.880,-1.065
610,0.755,-1.060
611,0.610,-1.050
612,0.470,-0.995
613,0.370,-0.930
614,0.275,-0.850
615,0.220,-0.760
616,0.170,-0.700
617,0.135,-0.620
618,0.120,-0.565
619,0.105,-0.480
620,0.090,-0.415
621,0.115,-0.350
622,0.145,-0.285
623,0.190,-0.235
624,0.250,-0.195
625,0.340,-0.145
626,0.370,-0.105
627,0.335,-0.065
628,0.185,-0.035
629,-0.020,0.015
630,-0.220,0.050
631,-0.320,0.145
632,-0.370,0.225
633,-0.390,0.285
634,-0.425,0.325
635,-0.445,0.335
636,-0.500,0.335
637,-0.515,0.355
638,-0.505,0.375
639,-0.505,0.400
640,-0.535,0.400
641,-0.575,0.400
642,-0.605,0.400
643,-0.605,0.435
644,-0.590,0.450
645,-0.585,0.470
646,-0.615,0.445
647,-0.630,0.430
648,-0.655,0.450
649,-0.665,0.455
650,-0.650,0.480
651,-0.630,0.485
652,-0.645,0.480
653,-0.665,0.470
654,-0.670,0.470
655,-0.700,0.495
656,-0.670,0.525
657,-0.675,0.540
658,-0.680,0.550
659,-0.685,0.540
660,-0.700,0.540
661,-0.690,0.565
662,-0.710,0.585
663,-0.705,0.625
664,-0.705,0.625
665,-0.715,0.630
666,-0.715,0.625
667,-0.720,0.650
668,-0.715,0.660
669,-0.705,0.685
670,-0.690,0.690
671,-0.710,0.695
672,-0.725,0.700
673,-0.725,0.735
674,-0.715,0.770
675,-0.700,0.795
676,-0.695,0.790
677,-0.730,0.795
678,-0.740,0.795
679,-0.715,0.810
680,-0.685,0.830
681,-0.660,0.840
682,-0.650,0.830
683,-0.650,0.815
684,-0.670,0.810
685,-0.645,0.835
686,-0.630,0.845
687,-0.605,0.845
688,-0.595,0.835
689,-0.600,0.815
690,-0.630,0.780
691,-0.605,0.790
692,-0.570,0.790
693,-0.535,0.785
694,-0.520,0.750
695,-0.515,0.710
696,-0.525,0.680
697,-0.505,0.680
698,-0.475,0.665
699,-0.440,0.650
700,-0.430,0.620
701,-0.420,0.585
702,-0.430,0.555
703,-0.410,0.535
704,-0.385,0.535
705,-0.355,0.510
706,-0.340,0.465
707,-0.340,0.425
708,-0.355,0.415
709,-0.340,0.390
710,-0.320,0.385
711,-0.310,0.370
712,-0.295,0.340
713,-0.285,0.310
714,-0.315,0.295
715,-0.305,0.290
716,-0.305,0.295
717,-0.275,0.290
718,-0.285,0.275
719,-0.280,0.235
720,-0.290,0.205
721,-0.285,0.170
722,-0.275,0.170
723,-0.235,0.160
724,-0.245,0.155
725,-0.255,0.155
726,-0.280,0.140
727,-0.280,0.135
728,-0.285,0.155
729,-0.260,0.155
730,-0.260,0.130
731,-0.260,0.125
732,-0.255,0.130
733,-0.250,0.125
734,-0.235,0.135
735,-0.225,0.145
736,-0.220,0.135
737,-0.225,0.130
738,-0.235,0.120
739,-0.235,0.125
740,-0.210,0.135
741,-0.200,0.145
742,-0.215,0.140
743,-0.215,0.130
744,-0.250,0.130
745,-0.240,0.125
746,-0.230,0.130
747,-0.225,0.140
748,-0.225,0.135
749,-0.235,0.130
750,-0.265,0.125
751,-0.260,0.135
752,-0.230,0.150
753,-0.225,0.165
754,-0.220,0.140
755,-0.220,0.140
756,-0.240,0.130
757,-0.225,0.140
758,-0.225,0.165
759,-0.195,0.160
760,-0.200,0.145
761,-0.215,0.125
762,-0.235,0.120
763,-0.240,0.130
764,-0.235,0.130
765,-0.205,0.160
766,-0.195,0.145
767,-0.200,0.120
768,-0.210,0.110
769,-0.210,0.120
770,-0.215,0.135
771,-0.220,0.155
772,-0.205,0.150
773,-0.205,0.120
774,-0.215,0.120
775,-0.215,0.135
776,-0.210,0.130
777,-0.210,0.145
778,-0.215,0.135
779,-0.210,0.130
780,-0.215,0.125
781,-0.210,0.135
782,-0.205,0.145
783,-0.185,0.145
784,-0.185,0.130
785,-0.200,0.120
786,-0.225,0.120
787,-0.230,0.130
788,-0.205,0.130
789,-0.185,0.135
790,-0.180,0.130
791,-0.185,0.125
792,-0.205,0.120
793,-0.205,0.120
794,-0.210,0.135
795,-0.195,0.140
796,-0.205,0.135
797,-0.195,0.120
798,-0.220,0.120
799,-0.230,0.130
800,-0.225,0.145
801,-0.215,0.140
802,-0.210,0.135
803,-0.210,0.130
804,-0.215,0.140
805,-0.225,0.145
806,-0.210,0.150
807,-0.200,0.145
808,-0.195,0.140
809,-0.210,0.110
810,-0.230,0.085
811,-0.220,0.105
812,-0.205,0.110
813,-0.190,0.145
814,-0.195,0.135
815,-0.200,0.125
816,-0.225,0.115
817,-0.215,0.120
818,-0.210,0.120
819,-0.185,0.135
820,-0.190,0.125
821,-0.200,0.120
822,-0.205,0.125
823,-0.205,0.120
824,-0.205,0.140
825,-0.195,0.145
826,-0.200,0.145
827,-0.215,0.130
828,-0.205,0.135
829,-0.215,0.135
830,-0.200,0.145
831,-0.185,0.155
832,-0.175,0.145
833,-0.195,0.135
834,-0.210,0.130
835,-0.230,0.140
836,-0.200,0.140
837,-0.195,0.145
838,-0.185,0.130
839,-0.190,0.120
840,-0.215,0.120
841,-0.215,0.125
842,-0.205,0.145
843,-0.195,0.145
844,-0.205,0.145
845,-0.235,0.130
846,-0.235,0.120
847,-0.240,0.130
848,-0.220,0.140
849,-0.200,0.145
850,-0.210,0.145
851,-0.230,0.140
852,-0.240,0.125
853,-0.235,0.125
854,-0.230,0.120
855,-0.200,0.130
856,-0.195,0.115
857,-0.215,0.115
858,-0.220,0.095
859,-0.230,0.110
860,-0.210,0.120
861,-0.190,0.135
862,-0.195,0.125
863,-0.215,0.115
864,-0.225,0.115
865,-0.225,0.120
866,-0.185,0.135
867,-0.190,0.140
868,-0.180,0.135
869,-0.185,0.120
870,-0.210,0.115
871,-0.200,0.125
872,-0.190,0.135
873,-0.165,0.155
874,-0.180,0.135
875,-0.190,0.120
876,-0.205,0.110
877,-0.210,0.130
878,-0.180,0.130
879,-0.170,0.145
880,-0.180,0.140
881,-0.185,0.135
882,-0.195,0.130
883,-0.205,0.135
884,-0.210,0.150
885,-0.185,0.155
886,-0.180,0.140
887,-0.200,0.135
888,-0.215,0.130
889,-0.215,0.135
890,-0.185,0.155
891,-0.160,0.155
892,-0.165,0.140
893,-0.170,0.135
894,-0.165,0.135
895,-0.180,0.135
896,-0.160,0.155
897,-0.145,0.155
898,-0.135,0.160
899,-0.145,0.120
900,-0.155,0.130
901,-0.160,0.135
902,-0.145,0.135
903,-0.120,0.150
904,-0.125,0.150
905,-0.130,0.130
906,-0.130,0.105
907,-0.135,0.125
908,-0.130,0.135
909,-0.115,0.135
910,-0.095,0.135
911,-0.090,0.105
912,-0.070,0.085
913,-0.020,0.090
914,0.045,0.095
915,0.135,0.090
916,0.220,0.070
917,0.335,0.050
918,0.460,0.015
919,0.615,0.000
920,0.780,-0.035
921,0.970,-0.065
922,1.145,-0.090
923,1.275,-0.080
924,1.375,-0.025
925,1.395,0.075
926,1.300,0.155
927,1.130,0.165
928,0.855,0.160
929,0.565,0.155
930,0.260,0.200
931,-0.005,0.260
932,-0.195,0.305
933,-0.280,0.340
934,-0.280,0.320
935,-0.240,0.275
936,-0.215,0.225
937,-0.210,0.205
938,-0.170,0.185
939,-0.170,0.175
940,-0.175,0.165
941,-0.205,0.145
942,-0.215,0.145
943,-0.205,0.150
944,-0.215,0.160
945,-0.205,0.150
946,-0.225,0.120
947,-0.240,0.095
948,-0.255,0.085
949,-0.270,0.080
950,-0.270,0.100
951,-0.245,0.110
952,-0.250,0.095
953,-0.260,0.075
954,-0.280,0.090
955,-0.280,0.105
956,-0.270,0.110
957,-0.270,0.115
958,-0.265,0.110
959,-0.290,0.085
960,-0.305,0.085
961,-0.295,0.090
962,-0.280,0.085
963,-0.255,0.090
964,-0.265,0.085
965,-0.275,0.080
966,-0.295,0.085
967,-0.290,0.105
968,-0.285,0.110
969,-0.270,0.110
970,-0.265,0.105
971,-0.270,0.095
972,-0.280,0.075
973,-0.280,0.095
974,-0.270,0.105
975,-0.255,0.135
976,-0.255,0.120
977,-0.265,0.105
978,-0.285,0.115
979,-0.270,0.115
980,-0.250,0.125
981,-0.235,0.125
982,-0.235,0.125
983,-0.235,0.115
984,-0.250,0.100
985,-0.245,0.125
986,-0.220,0.135
987,-0.205,0.150
988,-0.205,0.110
989,-0.205,0.115
990,-0.200,0.105
991,-0.215,0.120
992,-0.205,0.145
993,-0.190,0.145
994,-0.185,0.140
995,-0.200,0.120
996,-0.200,0.110
997,-0.220,0.115
998,-0.180,0.125
999,-0.165,0.100
1000,-0.175,0.075
1001,-0.175,0.055
1002,-0.180,0.060
1003,-0.170,0.055
1004,-0.145,0.055
1005,-0.160,0.030
1006,-0.150,0.005
1007,-0.175,-0.010
1008,-0.160,-0.005
1009,-0.145,0.010
1010,-0.130,0.000
1011,-0.135,-0.010
1012,-0.150,-0.030
1013,-0.160,-0.035
1014,-0.165,-0.030
1015,-0.150,-0.030
1016,-0.140,-0.020
1017,-0.125,-0.025
1018,-0.130,-0.050
1019,-0.140,-0.045
1020,-0.115,-0.020
1021,-0.095,-0.020
1022,-0.080,-0.020
1023,-0.055,-0.030
1024,-0.050,-0.055
1025,-0.060,-0.065
1026,-0.030,-0.050
1027,-0.005,-0.040
1028,0.010,-0.045
1029,0.020,-0.060
1030,0.025,-0.085
1031,0.015,-0.080
1032,0.025,-0.065
1033,0.035,-0.035
1034,0.060,0.000
1035,0.070,-0.015
1036,0.055,-0.020
1037,0.035,-0.020
1038,0.025,-0.020
1039,0.040,-0.005
1040,0.055,0.010
1041,0.025,0.020
1042,0.005,0.015
1043,-0.005,0.010
1044,-0.005,0.035
1045,0.000,0.050
1046,0.005,0.065
1047,0.000,0.070
1048,-0.020,0.055
1049,-0.050,0.055
1050,-0.065,0.070
1051,-0.055,0.080
1052,-0.065,0.105
1053,-0.080,0.095
1054,-0.095,0.090
1055,-0.110,0.090
1056,-0.110,0.105
1057,-0.105,0.110
1058,-0.095,0.125
1059,-0.105,0.120
1060,-0.120,0.105
1061,-0.125,0.100
1062,-0.135,0.100
1063,-0.125,0.125
1064,-0.115,0.125
1065,-0.125,0.125
1066,-0.145,0.110
1067,-0.145,0.120
1068,-0.150,0.135
1069,-0.150,0.145
1070,-0.130,0.155
1071,-0.135,0.140
1072,-0.145,0.135
1073,-0.145,0.130
1074,-0.145,0.140
1075,-0.125,0.160
1076,-0.105,0.165
1077,-0.115,0.150
1078,-0.120,0.145
1079,-0.125,0.135
1080,-0.135,0.150
1081,-0.110,0.160
1082,-0.090,0.165
1083,-0.090,0.150
1084,-0.105,0.125
1085,-0.130,0.125
1086,-0.130,0.135
1087,-0.095,0.150
1088,-0.085,0.145
1089,-0.095,0.130
1090,-0.115,0.120
1091,-0.110,0.125
1092,-0.110,0.120
1093,-0.100,0.130
1094,-0.095,0.135
1095,-0.115,0.125
1096,-0.105,0.100
1097,-0.120,0.095
1098,-0.125,0.110
1099,-0.110,0.140
1100,-0.105,0.125
1101,-0.115,0.115
1102,-0.120,0.080
1103,-0.130,0.070
1104,-0.120,0.080
1105,-0.135,0.095
1106,-0.100,0.090
1107,-0.125,0.085
1108,-0.140,0.075
1109,-0.140,0.080
1110,-0.145,0.095
1111,-0.115,0.100
1112,-0.115,0.105
1113,-0.120,0.080
1114,-0.140,0.065
1115,-0.175,0.060
1116,-0.180,0.090
1117,-0.175,0.095
1118,-0.150,0.105
1119,-0.150,0.105
1120,-0.145,0.100
1121,-0.145,0.115
1122,-0.150,0.120
1123,-0.145,0.115
1124,-0.140,0.110
1125,-0.140,0.100
1126,-0.160,0.090
1127,-0.185,0.095
1128,-0.175,0.105
1129,-0.150,0.125
1130,-0.135,0.130
1131,-0.140,0.110
1132,-0.170,0.105
1133,-0.170,0.105
1134,-0.165,0.125
1135,-0.155,0.135
1136,-0.145,0.140
1137,-0.145,0.120
1138,-0.160,0.130
1139,-0.165,0.120
1140,-0.160,0.125
1141,-0.150,0.145
1142,-0.125,0.150
1143,-0.130,0.125
1144,-0.160,0.125
1145,-0.150,0.120
1146,-0.155,0.135
1147,-0.155,0.145
1148,-0.155,0.145
1149,-0.160,0.135
1150,-0.150,0.130
1151,-0.155,0.125
1152,-0.150,0.150
1153,-0.150,0.165
1154,-0.135,0.170
1155,-0.145,0.150
1156,-0.165,0.130
1157,-0.180,0.115
1158,-0.190,0.135
1159,-0.185,0.145
1160,-0.155,0.140
1161,-0.165,0.135
1162,-0.165,0.115
1163,-0.200,0.115
1164,-0.205,0.120
1165,-0.175,0.125
1166,-0.165,0.125
1167,-0.155,0.100
1168,-0.170,0.095
1169,-0.175,0.095
1170,-0.195,0.105
1171,-0.165,0.110
1172,-0.165,0.120
1173,-0.155,0.115
1174,-0.165,0.105
1175,-0.210,0.090
1176,-0.195,0.095
1177,-0.160,0.105
1178,-0.150,0.130
1179,-0.165,0.120
1180,-0.165,0.115
1181,-0.175,0.100
1182,-0.165,0.125
1183,-0.145,0.120
1184,-0.125,0.130
1185,-0.125,0.120
1186,-0.150,0.110
1187,-0.160,0.100
1188,-0.175,0.125
1189,-0.145,0.135
1190,-0.135,0.140
1191,-0.130,0.140
1192,-0.140,0.125
1193,-0.165,0.110
1194,-0.170,0.115
1195,-0.170,0.125
1196,-0.155,0.150
1197,-0.145,0.145
1198,-0.150,0.120
1199,-0.160,0.105
1200,-0.155,0.135
1201,-0.125,0.135
1202,-0.115,0.155
1203,-0.125,0.150
1204,-0.135,0.140
1205,-0.155,0.140
1206,-0.155,0.160
1207,-0.135,0.170
1208,-0.130,0.170
1209,-0.135,0.150
1210,-0.155,0.135
1211,-0.155,0.135
1212,-0.160,0.145
1213,-0.140,0.155
1214,-0.135,0.160
1215,-0.130,0.155
1216,-0.135,0.135
1217,-0.130,0.120
1218,-0.135,0.130
1219,-0.145,0.140
1220,-0.110,0.145
1221,-0.125,0.130
1222,-0.130,0.120
1223,-0.145,0.105
1224,-0.130,0.130
1225,-0.090,0.135
1226,-0.050,0.120
1227,-0.065,0.105
1228,-0.065,0.075
1229,-0.050,0.060
1230,-0.005,0.075
1231,0.070,0.080
1232,0.165,0.070
1233,0.255,0.050
1234,0.360,0.020
1235,0.485,0.000
1236,0.630,-0.025
1237,0.790,-0.045
1238,0.965,-0.055
1239,1.135,-0.060
1240,1.275,-0.040
1241,1.385,0.010
1242,1.425,0.100
1243,1.385,0.170
1244,1.260,0.205
1245,1.025,0.200
1246,0.745,0.180
1247,0.495,0.215
1248,0.245,0.275
1249,0.005,0.315
1250,-0.170,0.350
1251,-0.265,0.355
1252,-0.275,0.335
1253,-0.250,0.290
1254,-0.200,0.250
1255,-0.170,0.245
1256,-0.150,0.220
1257,-0.150,0.195
1258,-0.155,0.150
1259,-0.165,0.120
1260,-0.160,0.115
1261,-0.180,0.115
1262,-0.170,0.095
1263,-0.190,0.080
1264,-0.215,0.070
1265,-0.225,0.060
1266,-0.225,0.095
1267,-0.215,0.105
1268,-0.195,0.110
1269,-0.200,0.100
1270,-0.215,0.085
1271,-0.205,0.095
1272,-0.205,0.095
1273,-0.200,0.115
1274,-0.185,0.105
1275,-0.185,0.115
1276,-0.205,0.100
1277,-0.210,0.110
1278,-0.220,0.130
1279,-0.210,0.140
1280,-0.210,0.135
1281,-0.210,0.110
1282,-0.235,0.090
1283,-0.245,0.100
1284,-0.235,0.115
1285,-0.220,0.125
1286,-0.190,0.130
1287,-0.190,0.120
1288,-0.195,0.120
1289,-0.215,0.110
1290,-0.230,0.120
1291,-0.215,0.130
1292,-0.210,0.140
1293,-0.210,0.135
1294,-0.220,0.095
1295,-0.230,0.105
1296,-0.230,0.105
1297,-0.215,0.125
1298,-0.195,0.140
1299,-0.200,0.130
1300,-0.200,0.130
1301,-0.215,0.125
1302,-0.200,0.125
1303,-0.185,0.120
1304,-0.190,0.115
1305,-0.200,0.115
1306,-0.205,0.105
1307,-0.225,0.105
1308,-0.220,0.115
1309,-0.205,0.115
1310,-0.200,0.125
1311,-0.200,0.110
1312,-0.220,0.095
1313,-0.220,0.060
1314,-0.200,0.060
1315,-0.170,0.065
1316,-0.150,0.070
1317,-0.145,0.060
1318,-0.155,0.040
1319,-0.170,0.045
1320,-0.160,0.045
1321,-0.135,0.065
1322,-0.125,0.060
1323,-0.115,0.040
1324,-0.125,0.040
1325,-0.145,0.035
1326,-0.130,0.030
1327,-0.130,0.040
1328,-0.115,0.045
1329,-0.105,0.025
1330,-0.100,0.015
1331,-0.115,0.010
1332,-0.110,0.020
1333,-0.100,0.015
1334,-0.090,0.005
1335,-0.080,-0.015
1336,-0.090,-0.015
1337,-0.080,-0.010
1338,-0.080,0.005
1339,-0.065,0.010
1340,-0.060,0.010
1341,-0.065,-0.010
1342,-0.075,-0.015
1343,-0.080,-0.045
1344,-0.065,-0.025
1345,-0.065,-0.005
1346,-0.045,0.000
1347,-0.040,-0.020
1348,-0.045,-0.035
1349,-0.055,-0.055
1350,-0.055,-0.040
1351,-0.040,-0.025
1352,-0.035,-0.035
1353,-0.040,-0.040
1354,-0.050,-0.035
1355,-0.040,-0.040
1356,-0.035,-0.035
1357,-0.015,-0.035
1358,0.000,-0.015
1359,-0.005,-0.035
1360,-0.035,-0.045
1361,-0.050,-0.040
1362,-0.045,-0.040
1363,-0.030,-0.020
1364,-0.025,-0.015
1365,-0.035,-0.030
1366,-0.035,-0.035
1367,-0.065,-0.025
1368,-0.065,0.010
1369,-0.065,0.025
1370,-0.055,0.035
1371,-0.080,0.055
1372,-0.095,0.035
1373,-0.115,0.045
1374,-0.100,0.055
1375,-0.090,0.095
1376,-0.085,0.110
1377,-0.085,0.110
1378,-0.110,0.125
1379,-0.130,0.125
1380,-0.140,0.140
1381,-0.125,0.165
1382,-0.110,0.185
1383,-0.115,0.160
1384,-0.125,0.135
1385,-0.145,0.145
1386,-0.150,0.175
1387,-0.140,0.195
1388,-0.125,0.195
1389,-0.120,0.200
1390,-0.140,0.190
1391,-0.150,0.200
1392,-0.165,0.215
1393,-0.140,0.215
1394,-0.125,0.220
1395,-0.130,0.210
1396,-0.130,0.210
1397,-0.125,0.200
1398,-0.105,0.220
1399,-0.075,0.210
1400,-0.060,0.210
1401,-0.080,0.205
1402,-0.080,0.205
1403,-0.080,0.195
1404,-0.055,0.195
1405,-0.020,0.215
1406,0.015,0.225
1407,0.035,0.200
1408,0.055,0.205
1409,0.040,0.210
1410,0.040,0.230
1411,0.080,0.230
1412,0.135,0.230
1413,0.175,0.210
1414,0.225,0.170
1415,0.265,0.110
1416,0.335,0.020
1417,0.420,-0.045
1418,0.495,-0.110
1419,0.560,-0.190
1420,0.620,-0.270
1421,0.670,-0.350
1422,0.735,-0.410
1423,0.825,-0.490
1424,0.910,-0.590
1425,0.980,-0.690
1426,1.030,-0.780
1427,1.065,-0.855
1428,1.120,-0.890
1429,1.125,-0.915
1430,1.115,-0.915
1431,1.100,-0.915
1432,1.085,-0.910
1433,1.065,-0.905
1434,1.015,-0.905
1435,0.970,-0.890
1436,0.910,-0.875
1437,0.810,-0.870
1438,0.690,-0.850
1439,0.560,-0.805
1440,0.445,-0.740
1441,0.345,-0.665
1442,0.280,-0.615
1443,0.225,-0.555
1444,0.175,-0.505
1445,0.135,-0.455
1446,0.135,-0.405
1447,0.130,-0.355
1448,0.145,-0.290
1449,0.150,-0.240
1450,0.145,-0.210
1451,0.180,-0.170
1452,0.235,-0.115
1453,0.305,-0.085
1454,0.365,-0.065
1455,0.315,-0.060
1456,0.200,-0.060
1457,0.040,-0.030
1458,-0.120,0.025
1459,-0.250,0.090
1460,-0.305,0.145
1461,-0.360,0.200
1462,-0.385,0.240
1463,-0.415,0.285
1464,-0.445,0.300
1465,-0.470,0.320
1466,-0.465,0.345
1467,-0.485,0.355
1468,-0.510,0.360
1469,-0.540,0.370
1470,-0.570,0.380
1471,-0.560,0.410
1472,-0.560,0.420
1473,-0.575,0.410
1474,-0.585,0.405
1475,-0.595,0.395
1476,-0.615,0.420
1477,-0.605,0.460
1478,-0.600,0.480
1479,-0.605,0.480
1480,-0.615,0.470
1481,-0.620,0.470
1482,-0.620,0.495
1483,-0.640,0.520
1484,-0.640,0.545
1485,-0.635,0.555
1486,-0.645,0.530
1487,-0.675,0.540
1488,-0.660,0.550
1489,-0.645,0.570
1490,-0.625,0.575
1491,-0.635,0.575
1492,-0.655,0.580
1493,-0.660,0.585
1494,-0.685,0.625
1495,-0.675,0.635
1496,-0.665,0.635
1497,-0.675,0.635
1498,-0.695,0.635
1499,-0.705,0.645
1500,-0.720,0.675
1501,-0.720,0.690
1502,-0.710,0.710
1503,-0.705,0.695
1504,-0.740,0.705
1505,-0.750,0.700
1506,-0.745,0.720
1507,-0.745,0.745
1508,-0.725,0.745
1509,-0.725,0.755
1510,-0.730,0.755
1511,-0.730,0.765
1512,-0.735,0.790
1513,-0.715,0.800
1514,-0.705,0.790
1515,-0.730,0.800
1516,-0.735,0.795
1517,-0.725,0.795
1518,-0.730,0.810
1519,-0.715,0.810
1520,-0.670,0.815
1521,-0.675,0.815
1522,-0.670,0.800
1523,-0.665,0.790
1524,-0.650,0.800
1525,-0.625,0.770
1526,-0.615,0.780
1527,-0.610,0.760
1528,-0.610,0.730
1529,-0.595,0.710
1530,-0.570,0.700
1531,-0.540,0.690
1532,-0.520,0.660
1533,-0.510,0.645
1534,-0.495,0.595
1535,-0.480,0.580
1536,-0.480,0.560
1537,-0.445,0.555
1538,-0.405,0.530
1539,-0.400,0.490
1540,-0.415,0.430
1541,-0.405,0.430
1542,-0.365,0.415
1543,-0.350,0.395
1544,-0.325,0.385
1545,-0.310,0.360
1546,-0.315,0.335
1547,-0.335,0.305
1548,-0.330,0.300
1549,-0.310,0.305
1550,-0.270,0.295
1551,-0.255,0.260
1552,-0.265,0.240
1553,-0.290,0.225
1554,-0.285,0.230
1555,-0.255,0.230
1556,-0.240,0.225
1557,-0.250,0.220
1558,-0.250,0.195
1559,-0.255,0.170
1560,-0.255,0.180
1561,-0.255,0.190
1562,-0.250,0.200
1563,-0.235,0.185
1564,-0.250,0.155
1565,-0.255,0.155
1566,-0.250,0.165
1567,-0.240,0.180
1568,-0.225,0.185
1569,-0.230,0.175
1570,-0.260,0.165
1571,-0.250,0.165
1572,-0.245,0.175
1573,-0.245,0.190
1574,-0.220,0.190
1575,-0.220,0.170
1576,-0.240,0.165
1577,-0.255,0.155
1578,-0.230,0.160
1579,-0.215,0.180
1580,-0.195,0.165
1581,-0.210,0.140
1582,-0.205,0.125
1583,-0.205,0.110
1584,-0.210,0.125
1585,-0.205,0.155
1586,-0.195,0.160
1587,-0.200,0.155
1588,-0.215,0.130
1589,-0.235,0.125
1590,-0.235,0.130
1591,-0.225,0.140
1592,-0.210,0.160
1593,-0.205,0.150
1594,-0.200,0.140
1595,-0.225,0.130
1596,-0.240,0.155
1597,-0.220,0.165
1598,-0.205,0.175
1599,-0.200,0.160
1600,-0.210,0.135
1601,-0.230,0.140
1602,-0.215,0.145
1603,-0.210,0.160
1604,-0.180,0.175
1605,-0.195,0.170
1606,-0.230,0.150
1607,-0.240,0.160
1608,-0.225,0.170
1609,-0.210,0.180
1610,-0.200,0.190
1611,-0.220,0.180
1612,-0.240,0.165
1613,-0.235,0.165
1614,-0.230,0.195
1615,-0.225,0.185
1616,-0.215,0.180
1617,-0.230,0.180
1618,-0.235,0.170
1619,-0.240,0.160
1620,-0.240,0.155
1621,-0.235,0.150
1622,-0.235,0.145
1623,-0.250,0.120
1624,-0.255,0.115
1625,-0.260,0.095
1626,-0.245,0.110
1627,-0.225,0.135
1628,-0.200,0.130
1629,-0.215,0.115
1630,-0.225,0.095
1631,-0.235,0.085
1632,-0.225,0.110
1633,-0.210,0.120
1634,-0.205,0.110
1635,-0.215,0.110
1636,-0.225,0.105
1637,-0.235,0.100
1638,-0.230,0.110
1639,-0.240,0.120
1640,-0.215,0.125
1641,-0.220,0.100
1642,-0.225,0.070
1643,-0.230,0.095
1644,-0.220,0.105
1645,-0.215,0.125
1646,-0.190,0.130
1647,-0.195,0.130
1648,-0.225,0.110
1649,-0.245,0.115
1650,-0.260,0.135
1651,-0.245,0.155
1652,-0.215,0.140
1653,-0.215,0.135
1654,-0.240,0.120
1655,-0.280,0.135
1656,-0.260,0.140
1657,-0.250,0.160
1658,-0.240,0.155
1659,-0.240,0.145
1660,-0.235,0.145
1661,-0.240,0.145
1662,-0.235,0.150
1663,-0.230,0.155
1664,-0.215,0.155
1665,-0.215,0.160
1666,-0.225,0.145
1667,-0.235,0.140
1668,-0.230,0.140
1669,-0.220,0.150
1670,-0.235,0.150
1671,-0.240,0.140
1672,-0.250,0.135
1673,-0.245,0.135
1674,-0.230,0.140
1675,-0.225,0.160
1676,-0.210,0.160
1677,-0.220,0.165
1678,-0.235,0.140
1679,-0.245,0.135
1680,-0.245,0.150
1681,-0.230,0.150
1682,-0.220,0.135
1683,-0.230,0.135
1684,-0.250,0.120
1685,-0.240,0.120
1686,-0.245,0.125
1687,-0.225,0.125
1688,-0.190,0.140
1689,-0.195,0.135
1690,-0.205,0.115
1691,-0.230,0.115
1692,-0.225,0.125
1693,-0.225,0.135
1694,-0.190,0.130
1695,-0.200,0.140
1696,-0.225,0.110
1697,-0.235,0.120
1698,-0.235,0.120
1699,-0.220,0.125
1700,-0.240,0.130
1701,-0.250,0.130
1702,-0.265,0.115
1703,-0.265,0.140
1704,-0.245,0.145
1705,-0.230,0.155
1706,-0.215,0.150
1707,-0.225,0.125
1708,-0.240,0.100
1709,-0.240,0.110
1710,-0.250,0.110
1711,-0.230,0.125
1712,-0.215,0.120
1713,-0.215,0.125
1714,-0.230,0.105
1715,-0.240,0.120
1716,-0.245,0.125
1717,-0.230,0.125
1718,-0.230,0.110
1719,-0.210,0.120
1720,-0.220,0.115
1721,-0.235,0.120
1722,-0.235,0.135
1723,-0.220,0.165
1724,-0.205,0.140
1725,-0.225,0.135
1726,-0.235,0.110
1727,-0.250,0.115
1728,-0.260,0.115
1729,-0.225,0.135
1730,-0.215,0.135
1731,-0.235,0.120
1732,-0.240,0.110
1733,-0.255,0.105
1734,-0.245,0.110
1735,-0.225,0.115
1736,-0.205,0.115
1737,-0.210,0.105
1738,-0.225,0.095
1739,-0.240,0.105
1740,-0.225,0.115
1741,-0.205,0.125
1742,-0.235,0.125
1743,-0.255,0.125
1744,-0.280,0.115
1745,-0.275,0.110
1746,-0.235,0.125
1747,-0.210,0.140
1748,-0.210,0.150
1749,-0.215,0.135
1750,-0.210,0.125
1751,-0.210,0.125
1752,-0.210,0.140
1753,-0.200,0.145
1754,-0.180,0.145
1755,-0.190,0.115
1756,-0.200,0.095
1757,-0.220,0.090
1758,-0.230,0.115
1759,-0.205,0.125
1760,-0.190,0.115
1761,-0.210,0.115
1762,-0.200,0.095
1763,-0.225,0.110
1764,-0.220,0.125
1765,-0.200,0.145
1766,-0.195,0.150
1767,-0.195,0.145
1768,-0.215,0.120
1769,-0.215,0.125
1770,-0.215,0.145
1771,-0.200,0.155
1772,-0.210,0.140
1773,-0.205,0.130
1774,-0.190,0.110
1775,-0.210,0.125
1776,-0.205,0.135
1777,-0.205,0.155
1778,-0.180,0.150
1779,-0.190,0.135
1780,-0.205,0.115
1781,-0.200,0.130
1782,-0.200,0.125
1783,-0.185,0.145
1784,-0.160,0.145
1785,-0.165,0.125
1786,-0.170,0.105
1787,-0.190,0.095
1788,-0.190,0.100
1789,-0.170,0.105
1790,-0.155,0.095
1791,-0.150,0.085
1792,-0.125,0.060
1793,-0.095,0.045
1794,-0.025,0.055
1795,0.045,0.050
1796,0.135,0.050
1797,0.245,0.040
1798,0.340,0.025
1799,0.480,0.015
1800,0.670,-0.030
1801,0.855,-0.050
1802,1.030,-0.065
1803,1.190,-0.080
1804,1.285,-0.065
1805,1.335,-0.005
1806,1.275,0.080
1807,1.130,0.120
1808,0.905,0.105
1809,0.635,0.110
1810,0.370,0.140
1811,0.090,0.175
1812,-0.135,0.215
1813,-0.270,0.225
1814,-0.290,0.235
1815,-0.260,0.200
1816,-0.230,0.155
1817,-0.225,0.120
1818,-0.195,0.110
1819,-0.200,0.110
1820,-0.210,0.115
1821,-0.200,0.110
1822,-0.225,0.095
1823,-0.230,0.085
1824,-0.220,0.095
1825,-0.220,0.120
1826,-0.230,0.130
1827,-0.250,0.125
1828,-0.285,0.120
1829,-0.275,0.115
1830,-0.275,0.115
1831,-0.260,0.135
1832,-0.260,0.130
1833,-0.275,0.120
1834,-0.290,0.095
1835,-0.295,0.110
1836,-0.290,0.120
1837,-0.275,0.140
1838,-0.265,0.140
1839,-0.265,0.130
1840,-0.285,0.115
1841,-0.300,0.120
1842,-0.290,0.155
1843,-0.280,0.160
1844,-0.270,0.155
1845,-0.265,0.130
1846,-0.275,0.115
1847,-0.315,0.120
1848,-0.330,0.135
1849,-0.305,0.165
1850,-0.290,0.165
1851,-0.300,0.150
1852,-0.310,0.150
1853,-0.330,0.145
1854,-0.335,0.155
1855,-0.295,0.160
1856,-0.280,0.155
1857,-0.295,0.140
1858,-0.300,0.115
1859,-0.310,0.115
1860,-0.300,0.120
1861,-0.285,0.115
1862,-0.260,0.105
1863,-0.260,0.085
1864,-0.285,0.090
1865,-0.275,0.095
1866,-0.270,0.120
1867,-0.255,0.120
1868,-0.245,0.125
1869,-0.245,0.100
1870,-0.260,0.095
1871,-0.275,0.085
1872,-0.270,0.080
1873,-0.260,0.105
1874,-0.245,0.110
1875,-0.230,0.095
1876,-0.235,0.070
1877,-0.245,0.075
1878,-0.230,0.090
1879,-0.240,0.095
1880,-0.195,0.090
1881,-0.205,0.075
1882,-0.205,0.070
1883,-0.210,0.075
1884,-0.195,0.070
1885,-0.165,0.075
1886,-0.140,0.080
1887,-0.145,0.065
1888,-0.150,0.055
1889,-0.160,0.030
1890,-0.165,0.040
1891,-0.145,0.035
1892,-0.130,0.045
1893,-0.130,0.020
1894,-0.145,0.005
1895,-0.135,0.005
1896,-0.120,0.010
1897,-0.110,0.010
1898,-0.090,0.000
1899,-0.095,-0.020
1900,-0.110,-0.040
1901,-0.100,-0.040
1902,-0.085,-0.040
1903,-0.075,-0.040
1904,-0.075,-0.040
1905,-0.065,-0.050
1906,-0.070,-0.060
1907,-0.070,-0.055
1908,-0.065,-0.060
1909,-0.035,-0.055
1910,-0.015,-0.050
1911,-0.020,-0.080
1912,-0.025,-0.085
1913,-0.025,-0.090
1914,-0.030,-0.060
1915,-0.015,-0.040
1916,0.015,-0.035
1917,0.020,-0.050
1918,-0.005,-0.050
1919,-0.010,-0.020
1920,-0.025,0.005
1921,-0.025,0.030
1922,-0.030,0.035
1923,-0.040,0.030
1924,-0.050,0.020
1925,-0.070,0.050
1926,-0.080,0.080
1927,-0.075,0.095
1928,-0.060,0.090
1929,-0.075,0.090
1930,-0.100,0.075
1931,-0.120,0.100
1932,-0.130,0.125
1933,-0.125,0.145
1934,-0.115,0.140
1935,-0.135,0.135
1936,-0.155,0.120
1937,-0.175,0.125
1938,-0.175,0.140
1939,-0.155,0.160
1940,-0.150,0.155
1941,-0.155,0.150
1942,-0.160,0.135
1943,-0.170,0.130
1944,-0.175,0.150
1945,-0.170,0.170
1946,-0.155,0.180
1947,-0.175,0.165
1948,-0.180,0.155
1949,-0.190,0.130
1950,-0.195,0.120
1951,-0.185,0.120
1952,-0.165,0.125
1953,-0.165,0.110
1954,-0.195,0.095
1955,-0.195,0.100
1956,-0.190,0.105
1957,-0.170,0.115
1958,-0.155,0.100
1959,-0.175,0.095
1960,-0.185,0.085
1961,-0.175,0.075
1962,-0.170,0.090
1963,-0.155,0.095
1964,-0.140,0.090
1965,-0.135,0.085
1966,-0.155,0.075
1967,-0.160,0.085
1968,-0.140,0.085
1969,-0.140,0.090
1970,-0.145,0.100
1971,-0.145,0.095
1972,-0.165,0.080
1973,-0.165,0.090
1974,-0.175,0.105
1975,-0.160,0.110
1976,-0.135,0.105
1977,-0.120,0.090
1978,-0.145,0.085
1979,-0.150,0.095
1980,-0.130,0.090
1981,-0.130,0.115
1982,-0.100,0.115
1983,-0.110,0.115
1984,-0.125,0.090
1985,-0.140,0.095
1986,-0.150,0.095
1987,-0.130,0.115
1988,-0.150,0.100
1989,-0.160,0.100
1990,-0.180,0.085
1991,-0.180,0.090
1992,-0.180,0.100
1993,-0.160,0.110
1994,-0.150,0.105
1995,-0.160,0.095
1996,-0.155,0.085
1997,-0.165,0.095
1998,-0.160,0.095
1999,-0.165,0.110
2000,-0.150,0.115
2001,-0.160,0.120
2002,-0.165,0.095
2003,-0.185,0.085
2004,-0.170,0.085
2005,-0.160,0.115
2006,-0.150,0.105
2007,-0.160,0.110
2008,-0.185,0.085
2009,-0.190,0.095
2010,-0.210,0.095
2011,-0.190,0.105
2012,-0.180,0.115
2013,-0.170,0.105
2014,-0.185,0.095
2015,-0.200,0.100
2016,-0.185,0.100
2017,-0.170,0.115
2018,-0.170,0.110
2019,-0.175,0.090
2020,-0.180,0.095
2021,-0.200,0.100
2022,-0.175,0.105
2023,-0.165,0.125
2024,-0.150,0.110
2025,-0.155,0.090
2026,-0.160,0.080
2027,-0.185,0.095
2028,-0.185,0.110
2029,-0.165,0.130
2030,-0.160,0.120
2031,-0.155,0.105
2032,-0.160,0.080
2033,-0.180,0.090
2034,-0.165,0.110
2035,-0.170,0.115
2036,-0.155,0.105
2037,-0.170,0.105
2038,-0.190,0.105
2039,-0.195,0.115
2040,-0.190,0.135
2041,-0.170,0.125
2042,-0.150,0.130
2043,-0.140,0.110
2044,-0.160,0.095
2045,-0.190,0.100
2046,-0.200,0.105
2047,-0.185,0.120
2048,-0.155,0.130
2049,-0.150,0.110
2050,-0.155,0.090
2051,-0.175,0.085
2052,-0.155,0.090
2053,-0.105,0.095
2054,-0.030,0.085
2055,0.030,0.060
2056,0.105,0.050
2057,0.200,0.035
2058,0.300,0.045
2059,0.460,0.035
2060,0.645,-0.005
2061,0.835,-0.055
2062,1.000,-0.100
2063,1.165,-0.085
2064,1.295,-0.050
2065,1.335,0.045
2066,1.250,0.140
2067,1.010,0.175
2068,0.700,0.145
2069,0.355,0.170
2070,0.055,0.245
2071,-0.200,0.320
2072,-0.340,0.365
2073,-0.375,0.355
2074,-0.325,0.320
2075,-0.290,0.260
2076,-0.250,0.205
2077,-0.200,0.165
2078,-0.170,0.140
2079,-0.180,0.085
2080,-0.205,0.080
2081,-0.225,0.085
2082,-0.220,0.080
2083,-0.210,0.100
2084,-0.220,0.100
2085,-0.235,0.100
2086,-0.250,0.090
2087,-0.265,0.100
2088,-0.265,0.120
2089,-0.260,0.130
2090,-0.245,0.130
2091,-0.240,0.110
2092,-0.250,0.100
2093,-0.265,0.100
2094,-0.265,0.110
2095,-0.270,0.130
2096,-0.260,0.115
2097,-0.285,0.125
2098,-0.290,0.115
2099,-0.285,0.105
2100,-0.280,0.110
2101,-0.265,0.115
2102,-0.260,0.100
2103,-0.255,0.090
2104,-0.285,0.080
2105,-0.290,0.090
2106,-0.305,0.110
2107,-0.300,0.135
2108,-0.280,0.120
2109,-0.280,0.110
2110,-0.295,0.100
2111,-0.285,0.095
2112,-0.270,0.120
2113,-0.260,0.125
2114,-0.250,0.110
2115,-0.255,0.095
2116,-0.260,0.090
2117,-0.250,0.085
2118,-0.245,0.065
2119,-0.240,0.095
2120,-0.215,0.085
2121,-0.220,0.070
2122,-0.250,0.055
2123,-0.230,0.065
2124,-0.230,0.070
2125,-0.215,0.070
2126,-0.205,0.075
2127,-0.215,0.060
2128,-0.220,0.050
2129,-0.235,0.035
2130,-0.235,0.030
2131,-0.215,0.040
2132,-0.190,0.025
2133,-0.170,0.020
2134,-0.170,0.005
2135,-0.185,0.005
2136,-0.205,0.015
2137,-0.205,0.030
2138,-0.175,0.040
2139,-0.165,0.020
2140,-0.160,-0.005
2141,-0.160,-0.040
2142,-0.160,-0.030
2143,-0.135,-0.005
2144,-0.125,-0.010
2145,-0.125,-0.020
2146,-0.120,-0.050
2147,-0.110,-0.060
2148,-0.115,-0.055
2149,-0.095,-0.045
2150,-0.075,-0.060
2151,-0.075,-0.065
2152,-0.110,-0.090
2153,-0.120,-0.090
2154,-0.105,-0.080
2155,-0.065,-0.075
2156,-0.060,-0.090
2157,-0.070,-0.090
2158,-0.065,-0.095
2159,-0.090,-0.100
2160,-0.085,-0.095
2161,-0.060,-0.100
2162,-0.040,-0.090
2163,-0.040,-0.095
2164,-0.065,-0.105
2165,-0.070,-0.105
2166,-0.055,-0.090
2167,-0.065,-0.075
2168,-0.050,-0.065
2169,-0.045,-0.050
2170,-0.060,-0.050
2171,-0.090,-0.040
2172,-0.095,-0.015
2173,-0.095,0.020
2174,-0.100,0.015
2175,-0.115,0.035
2176,-0.130,0.025
2177,-0.155,0.030
2178,-0.155,0.055
2179,-0.140,0.080
2180,-0.145,0.085
2181,-0.140,0.075
2182,-0.160,0.085
2183,-0.180,0.100
2184,-0.190,0.105
2185,-0.185,0.125
2186,-0.185,0.145
2187,-0.190,0.140
2188,-0.210,0.130
2189,-0.215,0.140
2190,-0.200,0.160
2191,-0.200,0.195
2192,-0.200,0.200
2193,-0.205,0.205
2194,-0.230,0.195
2195,-0.230,0.190
2196,-0.215,0.185
2197,-0.210,0.190
2198,-0.195,0.200
2199,-0.185,0.195
2200,-0.200,0.185
2201,-0.205,0.185
2202,-0.230,0.205
2203,-0.215,0.215
2204,-0.200,0.205
2205,-0.190,0.190
2206,-0.185,0.165
2207,-0.190,0.170
2208,-0.170,0.185
2209,-0.170,0.185
2210,-0.160,0.175
2211,-0.175,0.165
2212,-0.185,0.150
2213,-0.185,0.160
2214,-0.175,0.170
2215,-0.175,0.175
2216,-0.145,0.180
2217,-0.175,0.140
2218,-0.185,0.130
2219,-0.200,0.130
2220,-0.215,0.130
2221,-0.175,0.160
2222,-0.170,0.140
2223,-0.175,0.125
2224,-0.180,0.100
2225,-0.190,0.085
2226,-0.195,0.110
2227,-0.190,0.115
2228,-0.190,0.120
2229,-0.200,0.110
2230,-0.195,0.105
2231,-0.205,0.115
2232,-0.195,0.120
2233,-0.175,0.120
2234,-0.160,0.105
2235,-0.170,0.100
2236,-0.205,0.085
2237,-0.195,0.100
2238,-0.210,0.120
2239,-0.185,0.140
2240,-0.170,0.130
2241,-0.185,0.125
2242,-0.205,0.100
2243,-0.215,0.105
2244,-0.190,0.125
2245,-0.175,0.150
2246,-0.165,0.150
2247,-0.175,0.155
2248,-0.185,0.130
2249,-0.185,0.150
2250,-0.185,0.160
2251,-0.190,0.175
2252,-0.165,0.145
2253,-0.180,0.120
2254,-0.200,0.120
2255,-0.225,0.125
2256,-0.205,0.140
2257,-0.190,0.165
2258,-0.180,0.145
2259,-0.180,0.155
2260,-0.185,0.135
2261,-0.190,0.140
2262,-0.205,0.150
2263,-0.180,0.145
2264,-0.190,0.145
2265,-0.190,0.125
2266,-0.215,0.120
2267,-0.235,0.135
2268,-0.215,0.135
2269,-0.195,0.145
2270,-0.170,0.140
2271,-0.180,0.130
2272,-0.190,0.115
2273,-0.205,0.120
2274,-0.210,0.130
2275,-0.190,0.150
2276,-0.185,0.145
2277,-0.210,0.130
2278,-0.220,0.125
2279,-0.230,0.130
2280,-0.235,0.145
2281,-0.215,0.160
2282,-0.190,0.170
2283,-0.215,0.150
2284,-0.235,0.125
2285,-0.220,0.120
2286,-0.210,0.135
2287,-0.205,0.155
2288,-0.200,0.150
2289,-0.185,0.120
2290,-0.200,0.090
2291,-0.210,0.105
2292,-0.220,0.135
2293,-0.210,0.155
2294,-0.200,0.160
2295,-0.200,0.155
2296,-0.185,0.130
2297,-0.210,0.140
2298,-0.210,0.145
2299,-0.205,0.155
2300,-0.185,0.155
2301,-0.195,0.155
2302,-0.190,0.150
2303,-0.200,0.150
2304,-0.205,0.155
2305,-0.205,0.150
2306,-0.200,0.155
2307,-0.190,0.140
2308,-0.200,0.120
2309,-0.195,0.120
2310,-0.200,0.120
2311,-0.195,0.145
2312,-0.195,0.140
2313,-0.200,0.150
2314,-0.220,0.145
2315,-0.200,0.135
2316,-0.180,0.140
2317,-0.175,0.160
2318,-0.160,0.160
2319,-0.180,0.155
2320,-0.195,0.135
2321,-0.205,0.145
2322,-0.200,0.155
2323,-0.175,0.165
2324,-0.145,0.145
2325,-0.160,0.140
2326,-0.170,0.130
2327,-0.190,0.130
2328,-0.185,0.140
2329,-0.160,0.140
2330,-0.165,0.140
2331,-0.170,0.120
2332,-0.180,0.130
2333,-0.185,0.135
2334,-0.165,0.140
2335,-0.145,0.160
2336,-0.135,0.145
2337,-0.145,0.115
2338,-0.165,0.115
2339,-0.150,0.115
2340,-0.170,0.135
2341,-0.155,0.140
2342,-0.165,0.135
2343,-0.145,0.105
2344,-0.145,0.080
2345,-0.115,0.075
2346,-0.045,0.075
2347,0.040,0.090
2348,0.130,0.070
2349,0.215,0.060
2350,0.320,0.020
2351,0.455,0.010
2352,0.625,-0.010
2353,0.820,-0.035
2354,1.035,-0.055
2355,1.215,-0.060
2356,1.340,-0.035
2357,1.400,0.050
2358,1.350,0.150
2359,1.195,0.195
2360,0.935,0.185
2361,0.640,0.170
2362,0.325,0.195
2363,0.010,0.260
2364,-0.245,0.325
2365,-0.355,0.365
2366,-0.350,0.355
2367,-0.275,0.310
2368,-0.265,0.230
2369,-0.245,0.195
2370,-0.225,0.170
2371,-0.200,0.165
2372,-0.185,0.145
2373,-0.220,0.130
2374,-0.230,0.130
2375,-0.240,0.130
2376,-0.250,0.140
2377,-0.230,0.145
2378,-0.230,0.145
2379,-0.260,0.115
2380,-0.265,0.115
2381,-0.295,0.130
2382,-0.270,0.130
2383,-0.260,0.150
2384,-0.250,0.145
2385,-0.265,0.125
2386,-0.280,0.100
2387,-0.280,0.105
2388,-0.290,0.100
2389,-0.260,0.105
2390,-0.245,0.110
2391,-0.270,0.110
2392,-0.275,0.105
2393,-0.290,0.100
2394,-0.270,0.090
2395,-0.260,0.110
2396,-0.245,0.100
2397,-0.250,0.100
2398,-0.260,0.100
2399,-0.265,0.110
2400,-0.270,0.125
2401,-0.255,0.135
2402,-0.260,0.130
2403,-0.265,0.130
2404,-0.275,0.125
2405,-0.285,0.110
2406,-0.295,0.115
2407,-0.280,0.130
2408,-0.250,0.125
2409,-0.240,0.110
2410,-0.240,0.090
2411,-0.265,0.080
2412,-0.260,0.100
2413,-0.245,0.125
2414,-0.230,0.115
2415,-0.235,0.115
2416,-0.240,0.105
2417,-0.235,0.105
2418,-0.230,0.115
2419,-0.235,0.120
2420,-0.220,0.100
2421,-0.200,0.095
2422,-0.215,0.075
2423,-0.235,0.095
2424,-0.220,0.100
2425,-0.215,0.105
2426,-0.195,0.080
2427,-0.200,0.060
2428,-0.215,0.045
2429,-0.225,0.050
2430,-0.190,0.050
2431,-0.150,0.045
2432,-0.120,0.035
2433,-0.125,0.000
2434,-0.140,-0.025
2435,-0.140,-0.025
2436,-0.135,-0.015
2437,-0.110,-0.010
2438,-0.080,-0.020
2439,-0.095,-0.040
2440,-0.100,-0.070
2441,-0.100,-0.070
2442,-0.095,-0.070
2443,-0.070,-0.060
2444,-0.045,-0.070
2445,-0.050,-0.085
2446,-0.090,-0.100
2447,-0.065,-0.085
2448,-0.060,-0.080
2449,-0.050,-0.075
2450,-0.040,-0.095
2451,-0.030,-0.095
2452,-0.040,-0.085
2453,-0.055,-0.100
2454,-0.035,-0.075
2455,-0.040,-0.060
2456,-0.015,-0.075
2457,-0.030,-0.075
2458,-0.045,-0.090
2459,-0.050,-0.070
2460,-0.040,-0.045
2461,-0.040,-0.025
2462,-0.045,-0.025
2463,-0.045,-0.020
2464,-0.055,-0.025
2465,-0.070,-0.020
2466,-0.080,0.000
2467,-0.080,0.020
2468,-0.090,0.040
2469,-0.100,0.035
2470,-0.125,0.025
2471,-0.135,0.035
2472,-0.130,0.065
2473,-0.105,0.090
2474,-0.090,0.095
2475,-0.130,0.080
2476,-0.165,0.075
2477,-0.185,0.095
2478,-0.180,0.120
2479,-0.170,0.150
2480,-0.170,0.140
2481,-0.170,0.130
2482,-0.180,0.120
2483,-0.190,0.130
2484,-0.185,0.145
2485,-0.195,0.145
2486,-0.180,0.135
2487,-0.185,0.125
2488,-0.195,0.115
2489,-0.190,0.135
2490,-0.185,0.140
2491,-0.165,0.165
2492,-0.135,0.155
2493,-0.145,0.155
2494,-0.145,0.130
2495,-0.145,0.130
2496,-0.105,0.140
2497,-0.055,0.155
2498,-0.005,0.170
2499,0.005,0.165
2500,0.005,0.170
2501,0.030,0.195
2502,0.065,0.205
2503,0.140,0.205
2504,0.215,0.170
2505,0.275,0.095
2506,0.345,-0.005
2507,0.395,-0.080
2508,0.470,-0.135
2509,0.570,-0.205
2510,0.645,-0.265
2511,0.705,-0.355
2512,0.750,-0.430
2513,0.820,-0.535
2514,0.915,-0.625
2515,1.035,-0.710
2516,1.120,-0.815
2517,1.160,-0.905
2518,1.170,-0.965
2519,1.145,-0.965
2520,1.125,-0.940
2521,1.120,-0.920
2522,1.105,-0.950
2523,1.055,-0.985
2524,0.980,-1.010
2525,0.890,-1.010
2526,0.785,-0.990
2527,0.670,-0.940
2528,0.555,-0.920
2529,0.425,-0.890
2530,0.290,-0.855
2531,0.170,-0.790
2532,0.075,-0.720
2533,0.015,-0.620
2534,-0.010,-0.560
2535,-0.025,-0.505
2536,-0.055,-0.435
2537,-0.075,-0.380
2538,-0.085,-0.310
2539,-0.045,-0.250
2540,0.025,-0.200
2541,0.100,-0.150
2542,0.165,-0.120
2543,0.215,-0.095
2544,0.220,-0.065
2545,0.150,-0.030
2546,0.025,0.010
2547,-0.140,0.045
2548,-0.285,0.085
2549,-0.350,0.150
2550,-0.405,0.225
2551,-0.410,0.285
2552,-0.425,0.315
2553,-0.430,0.345
2554,-0.470,0.345
2555,-0.505,0.370
2556,-0.515,0.395
2557,-0.510,0.415
2558,-0.500,0.415
2559,-0.520,0.400
2560,-0.560,0.395
2561,-0.580,0.400
2562,-0.575,0.420
2563,-0.560,0.440
2564,-0.560,0.445
2565,-0.585,0.440
2566,-0.605,0.425
2567,-0.615,0.440
2568,-0.610,0.460
2569,-0.610,0.490
2570,-0.605,0.475
2571,-0.625,0.480
2572,-0.630,0.480
2573,-0.660,0.480
2574,-0.645,0.510
2575,-0.650,0.520
2576,-0.640,0.525
2577,-0.670,0.505
2578,-0.670,0.505
2579,-0.695,0.525
2580,-0.695,0.545
2581,-0.680,0.560
2582,-0.665,0.575
2583,-0.670,0.555
2584,-0.690,0.545
2585,-0.710,0.575
2586,-0.690,0.595
2587,-0.695,0.630
2588,-0.690,0.635
2589,-0.700,0.635
2590,-0.720,0.640
2591,-0.725,0.650
2592,-0.720,0.685
2593,-0.700,0.710
2594,-0.690,0.700
2595,-0.685,0.705
2596,-0.705,0.715
2597,-0.705,0.725
2598,-0.695,0.735
2599,-0.675,0.770
2600,-0.670,0.780
2601,-0.660,0.775
2602,-0.675,0.775
2603,-0.650,0.785
2604,-0.635,0.805
2605,-0.605,0.825
2606,-0.600,0.825
2607,-0.610,0.800
2608,-0.600,0.790
2609,-0.600,0.785
2610,-0.570,0.790
2611,-0.555,0.800
2612,-0.525,0.785
2613,-0.515,0.755
2614,-0.520,0.740
2615,-0.515,0.730
2616,-0.500,0.725
2617,-0.470,0.715
2618,-0.435,0.705
2619,-0.430,0.655
2620,-0.410,0.640
2621,-0.400,0.620
2622,-0.375,0.600
2623,-0.360,0.590
2624,-0.350,0.560
2625,-0.325,0.535
2626,-0.330,0.490
2627,-0.335,0.480
2628,-0.305,0.460
2629,-0.290,0.450
2630,-0.280,0.405
2631,-0.305,0.385
2632,-0.315,0.355
2633,-0.315,0.345
2634,-0.305,0.340
2635,-0.305,0.335
2636,-0.290,0.305
2637,-0.290,0.290
2638,-0.305,0.260
2639,-0.315,0.255
2640,-0.310,0.245
2641,-0.305,0.255
2642,-0.295,0.245
2643,-0.295,0.230
2644,-0.305,0.210
2645,-0.335,0.200
2646,-0.335,0.215
2647,-0.310,0.210
2648,-0.320,0.210
2649,-0.330,0.180
2650,-0.325,0.185
2651,-0.320,0.185
2652,-0.300,0.195
2653,-0.280,0.205
2654,-0.280,0.180
2655,-0.270,0.165
2656,-0.295,0.150
2657,-0.290,0.165
2658,-0.290,0.180
2659,-0.265,0.210
2660,-0.255,0.195
2661,-0.245,0.170
2662,-0.265,0.140
2663,-0.270,0.140
2664,-0.280,0.155
2665,-0.275,0.165
2666,-0.255,0.160
2667,-0.260,0.150
2668,-0.250,0.130
2669,-0.260,0.140
2670,-0.265,0.160
2671,-0.240,0.165
2672,-0.235,0.150
2673,-0.235,0.140
2674,-0.275,0.135
2675,-0.285,0.135
2676,-0.285,0.130
2677,-0.255,0.155
2678,-0.230,0.155
2679,-0.230,0.155
2680,-0.250,0.135
2681,-0.265,0.145
2682,-0.260,0.150
2683,-0.260,0.155
2684,-0.255,0.150
2685,-0.260,0.155
2686,-0.265,0.140
2687,-0.265,0.155
2688,-0.260,0.165
2689,-0.255,0.190
2690,-0.235,0.190
2691,-0.240,0.175
2692,-0.255,0.165
2693,-0.260,0.170
2694,-0.275,0.185
2695,-0.250,0.190
2696,-0.245,0.170
2697,-0.245,0.130
2698,-0.260,0.120
2699,-0.265,0.115
2700,-0.250,0.115
2701,-0.240,0.125
2702,-0.245,0.130
2703,-0.245,0.125
2704,-0.250,0.115
2705,-0.275,0.120
2706,-0.265,0.130
2707,-0.260,0.155
2708,-0.255,0.150
2709,-0.255,0.140
2710,-0.265,0.145
2711,-0.275,0.135
2712,-0.260,0.140
2713,-0.255,0.155
2714,-0.240,0.150
2715,-0.255,0.145
2716,-0.255,0.145
2717,-0.255,0.155
2718,-0.260,0.160
2719,-0.245,0.170
2720,-0.240,0.165
2721,-0.255,0.145
2722,-0.270,0.145
2723,-0.280,0.130
2724,-0.265,0.155
2725,-0.250,0.170
2726,-0.240,0.155
2727,-0.245,0.145
2728,-0.270,0.140
2729,-0.265,0.140
2730,-0.255,0.155
2731,-0.245,0.155
2732,-0.235,0.135
2733,-0.245,0.120
2734,-0.250,0.135
2735,-0.270,0.150
2736,-0.265,0.155
2737,-0.240,0.180
2738,-0.235,0.190
2739,-0.245,0.175
2740,-0.280,0.160
2741,-0.265,0.160
2742,-0.270,0.185
2743,-0.260,0.200
2744,-0.245,0.175
2745,-0.240,0.155
2746,-0.260,0.135
2747,-0.265,0.140
2748,-0.275,0.135
2749,-0.250,0.135
2750,-0.250,0.145
2751,-0.245,0.145
2752,-0.255,0.135
2753,-0.255,0.120
2754,-0.260,0.130
2755,-0.255,0.150
2756,-0.250,0.145
2757,-0.265,0.125
2758,-0.285,0.105
2759,-0.300,0.125
2760,-0.260,0.145
2761,-0.250,0.165
2762,-0.240,0.160
2763,-0.235,0.145
2764,-0.240,0.145
2765,-0.250,0.140
2766,-0.250,0.165
2767,-0.255,0.175
2768,-0.245,0.175
2769,-0.245,0.160
2770,-0.250,0.155
2771,-0.255,0.165
2772,-0.250,0.175
2773,-0.240,0.185
2774,-0.230,0.190
2775,-0.240,0.175
2776,-0.250,0.170
2777,-0.255,0.175
2778,-0.270,0.180
2779,-0.260,0.190
2780,-0.245,0.185
2781,-0.250,0.175
2782,-0.265,0.170
2783,-0.275,0.155
2784,-0.260,0.170
2785,-0.240,0.190
2786,-0.230,0.190
2787,-0.240,0.160
2788,-0.245,0.135
2789,-0.265,0.120
2790,-0.265,0.135
2791,-0.240,0.145
2792,-0.230,0.140
2793,-0.215,0.130
2794,-0.240,0.115
2795,-0.245,0.110
2796,-0.245,0.115
2797,-0.235,0.140
2798,-0.215,0.135
2799,-0.225,0.125
2800,-0.240,0.100
2801,-0.255,0.110
2802,-0.240,0.125
2803,-0.240,0.145
2804,-0.215,0.135
2805,-0.210,0.130
2806,-0.230,0.105
2807,-0.235,0.130
2808,-0.205,0.145
2809,-0.180,0.140
2810,-0.180,0.125
2811,-0.190,0.115
2812,-0.200,0.100
2813,-0.190,0.095
2814,-0.150,0.095
2815,-0.110,0.105
2816,-0.030,0.085
2817,0.035,0.065
2818,0.100,0.050
2819,0.225,0.055
2820,0.390,0.050
2821,0.570,0.020
2822,0.775,-0.025
2823,0.970,-0.075
2824,1.105,-0.100
2825,1.235,-0.060
2826,1.320,0.060
2827,1.295,0.155
2828,1.145,0.205
2829,0.860,0.205
2830,0.525,0.210
2831,0.185,0.245
2832,-0.105,0.290
2833,-0.305,0.330
2834,-0.385,0.320
2835,-0.370,0.295
2836,-0.330,0.250
2837,-0.290,0.200
2838,-0.260,0.155
2839,-0.235,0.145
2840,-0.230,0.120
2841,-0.275,0.115
2842,-0.290,0.115
2843,-0.315,0.110
2844,-0.285,0.130
2845,-0.305,0.140
2846,-0.275,0.135
2847,-0.300,0.120
2848,-0.305,0.115
2849,-0.310,0.130
2850,-0.315,0.130
2851,-0.300,0.150
2852,-0.305,0.145
2853,-0.310,0.130
2854,-0.320,0.120
2855,-0.325,0.125
2856,-0.305,0.135
2857,-0.320,0.135
2858,-0.305,0.145
2859,-0.325,0.140
2860,-0.320,0.145
2861,-0.310,0.150
2862,-0.300,0.160
2863,-0.300,0.165
2864,-0.295,0.160
2865,-0.315,0.145
2866,-0.315,0.120
2867,-0.320,0.105
2868,-0.320,0.110
2869,-0.320,0.135
2870,-0.300,0.130
2871,-0.310,0.120
2872,-0.325,0.115
2873,-0.325,0.110
2874,-0.320,0.130
2875,-0.320,0.150
2876,-0.320,0.140
2877,-0.315,0.130
2878,-0.330,0.120
2879,-0.340,0.125
2880,-0.320,0.135
2881,-0.310,0.140
2882,-0.300,0.150
2883,-0.300,0.135
2884,-0.325,0.120
2885,-0.320,0.110
2886,-0.300,0.120
2887,-0.280,0.140
2888,-0.265,0.130
2889,-0.275,0.125
2890,-0.280,0.110
2891,-0.280,0.120
2892,-0.275,0.120
2893,-0.250,0.130
2894,-0.235,0.105
2895,-0.240,0.070
2896,-0.255,0.070
2897,-0.255,0.075
2898,-0.260,0.075
2899,-0.245,0.080
2900,-0.225,0.065
2901,-0.210,0.040
2902,-0.210,0.030
2903,-0.200,0.035
2904,-0.175,0.035
2905,-0.145,0.040
2906,-0.150,0.020
2907,-0.145,-0.010
2908,-0.150,-0.035
2909,-0.170,-0.025
2910,-0.175,-0.015
2911,-0.155,-0.005
2912,-0.150,-0.015
2913,-0.170,-0.035
2914,-0.150,-0.060
2915,-0.160,-0.045
2916,-0.155,-0.045
2917,-0.140,-0.045
2918,-0.125,-0.050
2919,-0.110,-0.060
2920,-0.110,-0.080
2921,-0.110,-0.075
2922,-0.095,-0.075
2923,-0.090,-0.070
2924,-0.075,-0.080
2925,-0.090,-0.075
2926,-0.085,-0.085
2927,-0.105,-0.065
2928,-0.105,-0.060
2929,-0.070,-0.055
2930,-0.055,-0.080
2931,-0.060,-0.070
2932,-0.075,-0.080
2933,-0.085,-0.055
2934,-0.085,-0.035
2935,-0.075,-0.005
2936,-0.050,0.000
2937,-0.055,-0.005
2938,-0.080,0.005
2939,-0.095,0.015
2940,-0.105,0.035
2941,-0.110,0.060
2942,-0.090,0.065
2943,-0.115,0.075
2944,-0.125,0.090
2945,-0.150,0.095
2946,-0.145,0.125
2947,-0.145,0.140
2948,-0.155,0.140
2949,-0.180,0.150
2950,-0.200,0.150
2951,-0.220,0.135
2952,-0.215,0.150
2953,-0.195,0.165
2954,-0.195,0.165
2955,-0.210,0.140
2956,-0.245,0.125
2957,-0.250,0.140
2958,-0.245,0.145
2959,-0.240,0.145
2960,-0.240,0.135
2961,-0.250,0.120
2962,-0.250,0.125
2963,-0.260,0.135
2964,-0.250,0.140
2965,-0.230,0.155
2966,-0.235,0.160
2967,-0.230,0.140
2968,-0.255,0.125
2969,-0.250,0.125
2970,-0.250,0.155
2971,-0.225,0.170
2972,-0.230,0.170
2973,-0.220,0.150
2974,-0.245,0.125
2975,-0.255,0.135
2976,-0.250,0.135
2977,-0.225,0.170
2978,-0.205,0.155
2979,-0.210,0.140
2980,-0.225,0.120
2981,-0.235,0.125
2982,-0.220,0.145
2983,-0.220,0.155
2984,-0.200,0.150
2985,-0.215,0.135
2986,-0.200,0.125
2987,-0.215,0.135
2988,-0.200,0.145
2989,-0.180,0.165
2990,-0.170,0.175
2991,-0.170,0.170
2992,-0.195,0.155
2993,-0.210,0.150
2994,-0.215,0.160
2995,-0.190,0.155
2996,-0.195,0.130
2997,-0.205,0.130
2998,-0.215,0.125
2999,-0.210,0.130
3000,-0.195,0.155
3001,-0.175,0.165
3002,-0.155,0.150
3003,-0.165,0.120
3004,-0.205,0.105
3005,-0.200,0.105
3006,-0.195,0.105
3007,-0.195,0.135
3008,-0.200,0.120
3009,-0.200,0.105
3010,-0.210,0.090
3011,-0.210,0.090
3012,-0.210,0.105
3013,-0.200,0.135
3014,-0.200,0.125
3015,-0.220,0.110
3016,-0.225,0.095
3017,-0.220,0.115
3018,-0.215,0.115
3019,-0.190,0.120
3020,-0.205,0.120
3021,-0.215,0.120
3022,-0.245,0.115
3023,-0.245,0.110
3024,-0.230,0.130
3025,-0.215,0.135
3026,-0.190,0.130
3027,-0.190,0.135
3028,-0.210,0.115
3029,-0.220,0.125
3030,-0.230,0.130
3031,-0.230,0.150
3032,-0.200,0.155
3033,-0.195,0.135
3034,-0.210,0.125
3035,-0.215,0.115
3036,-0.205,0.130
3037,-0.205,0.145
3038,-0.205,0.140
3039,-0.205,0.140
3040,-0.225,0.115
3041,-0.230,0.130
3042,-0.225,0.120
3043,-0.205,0.135
3044,-0.185,0.135
3045,-0.195,0.125
3046,-0.195,0.115
3047,-0.195,0.105
3048,-0.185,0.120
3049,-0.195,0.135
3050,-0.180,0.105
3051,-0.180,0.080
3052,-0.155,0.060
3053,-0.120,0.055
3054,-0.040,0.080
3055,0.035,0.080
3056,0.130,0.060
3057,0.235,0.030
3058,0.390,0.020
3059,0.545,0.010
3060,0.760,-0.025
3061,0.990,-0.035
3062,1.165,-0.040
3063,1.320,-0.030
3064,1.390,0.010
3065,1.365,0.115
3066,1.255,0.180
3067,1.065,0.210
3068,0.805,0.190
3069,0.500,0.175
3070,0.195,0.205
3071,-0.110,0.275
3072,-0.340,0.330
3073,-0.460,0.365
3074,-0.465,0.385
3075,-0.415,0.355
3076,-0.365,0.310
3077,-0.335,0.260
3078,-0.305,0.225
3079,-0.265,0.220
3080,-0.265,0.170
3081,-0.260,0.140
3082,-0.290,0.120
3083,-0.285,0.090
3084,-0.290,0.105
3085,-0.280,0.120
3086,-0.280,0.125
3087,-0.285,0.115
3088,-0.305,0.115
3089,-0.310,0.115
3090,-0.310,0.130
3091,-0.305,0.140
3092,-0.295,0.125
3093,-0.305,0.110
3094,-0.330,0.120
3095,-0.345,0.115
3096,-0.315,0.130
3097,-0.305,0.130
3098,-0.310,0.135
3099,-0.315,0.110
3100,-0.330,0.095
3101,-0.340,0.100
3102,-0.325,0.120
3103,-0.325,0.125
3104,-0.300,0.120
3105,-0.320,0.115
3106,-0.330,0.100
3107,-0.340,0.105
3108,-0.325,0.135
3109,-0.310,0.145
3110,-0.315,0.140
3111,-0.320,0.110
3112,-0.315,0.090
3113,-0.335,0.090
3114,-0.335,0.110
3115,-0.325,0.110
3116,-0.310,0.110
3117,-0.325,0.090
3118,-0.335,0.080
3119,-0.325,0.080
3120,-0.300,0.105
3121,-0.285,0.120
3122,-0.295,0.110
3123,-0.310,0.105
3124,-0.330,0.085
3125,-0.315,0.075
3126,-0.325,0.075
3127,-0.310,0.085
3128,-0.285,0.085
3129,-0.300,0.070
3130,-0.325,0.060
3131,-0.325,0.065
3132,-0.320,0.075
3133,-0.310,0.070
3134,-0.295,0.080
3135,-0.305,0.050
3136,-0.315,0.040
3137,-0.295,0.035
3138,-0.280,0.040
3139,-0.270,0.050
3140,-0.245,0.045
3141,-0.240,0.025
3142,-0.245,-0.005
3143,-0.245,0.010
3144,-0.225,-0.025
3145,-0.225,-0.030
3146,-0.220,-0.045
3147,-0.230,-0.055
3148,-0.225,-0.065
3149,-0.215,-0.070
3150,-0.205,-0.065
3151,-0.180,-0.040
3152,-0.175,-0.060
3153,-0.190,-0.080
3154,-0.195,-0.100
3155,-0.185,-0.095
3156,-0.170,-0.080
3157,-0.150,-0.090
3158,-0.140,-0.100
3159,-0.140,-0.120
3160,-0.150,-0.115
3161,-0.150,-0.110
3162,-0.150,-0.125
3163,-0.130,-0.105
3164,-0.125,-0.115
3165,-0.120,-0.120
3166,-0.155,-0.125
3167,-0.135,-0.105
3168,-0.115,-0.095
3169,-0.105,-0.055
3170,-0.110,-0.065
3171,-0.125,-0.065
3172,-0.140,-0.075
3173,-0.150,-0.055
3174,-0.150,-0.025
3175,-0.165,0.000
3176,-0.160,0.005
3177,-0.170,0.010
3178,-0.190,0.010
3179,-0.210,0.035
3180,-0.200,0.060
3181,-0.200,0.085
3182,-0.210,0.090
3183,-0.235,0.080
3184,-0.265,0.070
3185,-0.275,0.090
3186,-0.245,0.120
3187,-0.240,0.130
3188,-0.260,0.135
3189,-0.265,0.125
3190,-0.285,0.140
3191,-0.310,0.160
3192,-0.305,0.195
3193,-0.275,0.195
3194,-0.260,0.195
3195,-0.270,0.175
3196,-0.285,0.165
3197,-0.305,0.175
3198,-0.310,0.185
3199,-0.300,0.190
3200,-0.290,0.190
3201,-0.300,0.185
3202,-0.300,0.165
3203,-0.305,0.175
3204,-0.295,0.175
3205,-0.280,0.185
3206,-0.265,0.180
3207,-0.290,0.185
3208,-0.290,0.155
3209,-0.285,0.165
3210,-0.280,0.165
3211,-0.275,0.175
3212,-0.260,0.170
3213,-0.270,0.170
3214,-0.295,0.145
3215,-0.285,0.155
3216,-0.275,0.175
3217,-0.255,0.170
3218,-0.250,0.175
3219,-0.260,0.170
3220,-0.275,0.155
3221,-0.240,0.155
3222,-0.245,0.165
3223,-0.235,0.170
3224,-0.235,0.160
3225,-0.240,0.135
3226,-0.255,0.130
3227,-0.270,0.140
3228,-0.255,0.150
3229,-0.245,0.155
3230,-0.235,0.150
3231,-0.240,0.140
3232,-0.265,0.115
3233,-0.265,0.125
3234,-0.255,0.135
3235,-0.245,0.150
3236,-0.230,0.145
3237,-0.245,0.125
3238,-0.265,0.120
3239,-0.255,0.120
3240,-0.245,0.135
3241,-0.245,0.155
3242,-0.235,0.155
3243,-0.255,0.130
3244,-0.275,0.110
3245,-0.265,0.130
3246,-0.265,0.140
3247,-0.245,0.150
3248,-0.240,0.135
3249,-0.250,0.135
3250,-0.265,0.130
3251,-0.260,0.145
3252,-0.265,0.150
3253,-0.255,0.160
3254,-0.240,0.150
3255,-0.260,0.145
3256,-0.285,0.140
3257,-0.290,0.145
3258,-0.285,0.155
3259,-0.275,0.175
3260,-0.280,0.165
3261,-0.270,0.155
3262,-0.285,0.145
3263,-0.290,0.150
3264,-0.265,0.170
3265,-0.255,0.195
3266,-0.255,0.180
3267,-0.265,0.160
3268,-0.280,0.140
3269,-0.290,0.155
3270,-0.295,0.165
3271,-0.275,0.175
3272,-0.275,0.175
3273,-0.295,0.155
3274,-0.300,0.150
3275,-0.305,0.145
3276,-0.290,0.150
3277,-0.260,0.165
3278,-0.260,0.140
3279,-0.285,0.130
3280,-0.305,0.115
3281,-0.315,0.125
3282,-0.295,0.140
3283,-0.265,0.150
3284,-0.255,0.140
3285,-0.270,0.125
3286,-0.285,0.120
3287,-0.290,0.125
3288,-0.295,0.130
3289,-0.285,0.130
3290,-0.280,0.125
3291,-0.290,0.115
3292,-0.300,0.120
3293,-0.290,0.135
3294,-0.285,0.150
3295,-0.260,0.150
3296,-0.255,0.140
3297,-0.275,0.125
3298,-0.280,0.120
3299,-0.305,0.135
3300,-0.280,0.150
3301,-0.280,0.160
3302,-0.250,0.160
3303,-0.260,0.145
3304,-0.280,0.150
3305,-0.275,0.155
3306,-0.290,0.150
3307,-0.265,0.175
3308,-0.260,0.170
3309,-0.270,0.155
3310,-0.290,0.130
3311,-0.295,0.150
3312,-0.275,0.170
3313,-0.260,0.175
3314,-0.255,0.180
3315,-0.260,0.160
3316,-0.280,0.150
3317,-0.290,0.145
3318,-0.280,0.165
3319,-0.270,0.175
3320,-0.255,0.180
3321,-0.275,0.170
3322,-0.305,0.160
3323,-0.290,0.155
3324,-0.280,0.170
3325,-0.275,0.180
3326,-0.260,0.170
3327,-0.290,0.155
3328,-0.305,0.140
3329,-0.305,0.145
3330,-0.285,0.170
3331,-0.265,0.160
3332,-0.260,0.165
3333,-0.275,0.135
3334,-0.290,0.130
3335,-0.285,0.140
3336,-0.290,0.155
3337,-0.285,0.165
3338,-0.280,0.150
3339,-0.285,0.125
3340,-0.300,0.120
3341,-0.315,0.125
3342,-0.290,0.140
3343,-0.275,0.155
3344,-0.265,0.140
3345,-0.270,0.130
3346,-0.275,0.125
3347,-0.270,0.135
3348,-0.270,0.145
3349,-0.270,0.145
3350,-0.270,0.145
3351,-0.265,0.140
3352,-0.265,0.130
3353,-0.260,0.140
3354,-0.265,0.155
3355,-0.255,0.150
3356,-0.255,0.165
3357,-0.255,0.145
3358,-0.270,0.155
3359,-0.270,0.160
3360,-0.260,0.170
3361,-0.260,0.175
3362,-0.255,0.160
3363,-0.265,0.140
3364,-0.270,0.135
3365,-0.270,0.150
3366,-0.255,0.185
3367,-0.250,0.190
3368,-0.250,0.165
3369,-0.245,0.160
3370,-0.260,0.140
3371,-0.265,0.145
3372,-0.265,0.150
3373,-0.250,0.165
3374,-0.250,0.165
3375,-0.250,0.145
3376,-0.260,0.145
3377,-0.260,0.145
3378,-0.250,0.155
3379,-0.255,0.180
3380,-0.245,0.170
3381,-0.250,0.165
3382,-0.260,0.145
3383,-0.245,0.125
3384,-0.240,0.140
3385,-0.245,0.145
3386,-0.250,0.150
3387,-0.250,0.145
3388,-0.260,0.140
3389,-0.260,0.140
3390,-0.245,0.155
3391,-0.225,0.160
3392,-0.220,0.155
3393,-0.225,0.145
3394,-0.245,0.130
3395,-0.250,0.150
3396,-0.240,0.160
3397,-0.230,0.165
3398,-0.230,0.165
3399,-0.245,0.150
3400,-0.250,0.145
3401,-0.240,0.150
3402,-0.225,0.160
3403,-0.210,0.170
3404,-0.200,0.150
3405,-0.220,0.145
3406,-0.235,0.130
3407,-0.230,0.155
3408,-0.235,0.175
3409,-0.220,0.190
3410,-0.230,0.175
3411,-0.225,0.160
3412,-0.230,0.155
3413,-0.230,0.160
3414,-0.235,0.170
3415,-0.225,0.170
3416,-0.220,0.160
3417,-0.220,0.145
3418,-0.235,0.125
3419,-0.230,0.140
3420,-0.195,0.155
3421,-0.180,0.160
3422,-0.195,0.150
3423,-0.220,0.135
3424,-0.235,0.130
3425,-0.230,0.125
3426,-0.215,0.135
3427,-0.200,0.135
3428,-0.195,0.135
3429,-0.185,0.125
3430,-0.190,0.110
3431,-0.195,0.115
3432,-0.200,0.140
3433,-0.190,0.145
3434,-0.195,0.125
3435,-0.200,0.100
3436,-0.210,0.100
3437,-0.210,0.125
3438,-0.205,0.140
3439,-0.185,0.135
3440,-0.190,0.130
3441,-0.185,0.120
3442,-0.195,0.115
3443,-0.200,0.105
3444,-0.195,0.120
3445,-0.195,0.120
3446,-0.180,0.125
3447,-0.200,0.120
3448,-0.200,0.100
3449,-0.210,0.110
3450,-0.200,0.120
3451,-0.185,0.135
3452,-0.175,0.135
3453,-0.175,0.115
3454,-0.190,0.110
3455,-0.190,0.110
3456,-0.180,0.125
3457,-0.170,0.140
3458,-0.180,0.140
3459,-0.210,0.125
3460,-0.210,0.115
3461,-0.205,0.115
3462,-0.195,0.130
3463,-0.160,0.140
3464,-0.150,0.135
3465,-0.170,0.120
3466,-0.175,0.105
3467,-0.185,0.115
3468,-0.185,0.125
3469,-0.180,0.145
3470,-0.180,0.140
3471,-0.190,0.140
3472,-0.190,0.125
3473,-0.195,0.135
3474,-0.180,0.145
3475,-0.175,0.165
3476,-0.175,0.145
3477,-0.170,0.130
3478,-0.185,0.120
3479,-0.180,0.130
3480,-0.180,0.150
3481,-0.155,0.145
3482,-0.165,0.135
3483,-0.170,0.125
3484,-0.185,0.100
3485,-0.200,0.110
3486,-0.175,0.135
3487,-0.155,0.160
3488,-0.150,0.165
3489,-0.135,0.145
3490,-0.165,0.120
3491,-0.150,0.125
3492,-0.155,0.125
3493,-0.145,0.140
3494,-0.135,0.135
3495,-0.150,0.125
3496,-0.160,0.125
3497,-0.160,0.140
3498,-0.155,0.155
3499,-0.135,0.160
3500,-0.140,0.150
3501,-0.140,0.130
3502,-0.155,0.120
3503,-0.160,0.120
3504,-0.135,0.110
3505,-0.115,0.115
3506,-0.105,0.120
3507,-0.130,0.100
3508,-0.130,0.095
3509,-0.115,0.100
3510,-0.110,0.105
3511,-0.105,0.095
3512,-0.105,0.085
3513,-0.090,0.055
3514,-0.070,0.040
3515,-0.015,0.035
3516,0.085,0.025
3517,0.185,0.030
3518,0.310,0.015
3519,0.430,-0.005
3520,0.555,-0.035
3521,0.705,-0.070
3522,0.885,-0.085
3523,1.045,-0.100
3524,1.185,-0.115
3525,1.320,-0.115
3526,1.370,-0.070
3527,1.340,0.005
3528,1.190,0.070
3529,0.950,0.105
3530,0.655,0.100
3531,0.360,0.125
3532,0.080,0.155
3533,-0.135,0.200
3534,-0.260,0.230
3535,-0.260,0.210
3536,-0.235,0.180
3537,-0.180,0.145
3538,-0.170,0.110
3539,-0.160,0.110
3540,-0.175,0.120
3541,-0.190,0.125
3542,-0.170,0.115
3543,-0.175,0.100
3544,-0.195,0.085
3545,-0.205,0.090
3546,-0.200,0.110
3547,-0.195,0.125
3548,-0.205,0.125
3549,-0.220,0.110
3550,-0.240,0.105
3551,-0.240,0.125
3552,-0.225,0.140
3553,-0.210,0.145
3554,-0.210,0.130
3555,-0.240,0.100
3556,-0.250,0.095
3557,-0.245,0.115
3558,-0.235,0.140
3559,-0.210,0.155
3560,-0.205,0.130
3561,-0.235,0.115
3562,-0.250,0.110
3563,-0.255,0.110
3564,-0.235,0.125
3565,-0.225,0.125
3566,-0.230,0.125
3567,-0.240,0.115
3568,-0.260,0.100
3569,-0.250,0.110
3570,-0.255,0.115
3571,-0.235,0.140
3572,-0.225,0.130
3573,-0.240,0.090
3574,-0.260,0.090
3575,-0.260,0.115
3576,-0.250,0.120
3577,-0.250,0.155
3578,-0.235,0.140
3579,-0.265,0.120
3580,-0.265,0.105
3581,-0.245,0.125
3582,-0.250,0.135
3583,-0.215,0.140
3584,-0.225,0.120
3585,-0.245,0.105
3586,-0.245,0.120
3587,-0.235,0.135
3588,-0.205,0.150
3589,-0.185,0.145
3590,-0.170,0.120
3591,-0.200,0.095
3592,-0.195,0.080
3593,-0.200,0.070
3594,-0.180,0.075
3595,-0.165,0.090
3596,-0.160,0.085
3597,-0.155,0.060
3598,-0.145,0.055
3599,-0.145,0.055
