0,-0.140,-0.375
1,-0.140,-0.375
2,-0.140,-0.375
3,-0.140,-0.375
4,-0.140,-0.375
5,-0.140,-0.375
6,-0.140,-0.375
7,-0.140,-0.375
8,-0.140,-0.350
9,-0.115,-0.355
10,-0.140,-0.370
11,-0.140,-0.385
12,-0.155,-0.385
13,-0.145,-0.365
14,-0.130,-0.360
15,-0.110,-0.360
16,-0.125,-0.360
17,-0.125,-0.375
18,-0.130,-0.360
19,-0.125,-0.350
20,-0.100,-0.335
21,-0.075,-0.320
22,-0.075,-0.320
23,-0.070,-0.340
24,-0.075,-0.325
25,-0.070,-0.320
26,-0.060,-0.295
27,-0.025,-0.280
28,-0.020,-0.285
29,-0.005,-0.290
30,0.005,-0.300
31,0.050,-0.310
32,0.115,-0.330
33,0.160,-0.360
34,0.170,-0.380
35,0.175,-0.380
36,0.165,-0.390
37,0.170,-0.380
38,0.150,-0.380
39,0.185,-0.380
40,0.135,-0.385
41,0.105,-0.390
42,0.080,-0.390
43,0.065,-0.365
44,0.060,-0.355
45,0.060,-0.345
46,0.015,-0.380
47,-0.025,-0.395
48,-0.070,-0.405
49,-0.090,-0.395
50,-0.120,-0.375
51,-0.130,-0.385
52,-0.120,-0.395
53,-0.150,-0.415
54,-0.170,-0.400
55,-0.175,-0.395
56,-0.165,-0.390
57,-0.145,-0.385
58,-0.155,-0.400
59,-0.160,-0.395
60,-0.160,-0.385
61,-0.150,-0.375
62,-0.140,-0.380
63,-0.120,-0.385
64,-0.140,-0.395
65,-0.155,-0.390
66,-0.155,-0.375
67,-0.135,-0.335
68,-0.130,-0.285
69,-0.110,-0.245
70,-0.105,-0.255
71,-0.130,-0.330
72,-0.140,-0.440
73,-0.140,-0.585
74,-0.140,-0.790
75,-0.100,-1.025
76,0.020,-1.210
77,0.180,-1.345
78,0.380,-1.380
79,0.605,-1.310
80,0.790,-1.195
81,0.895,-1.075
82,0.840,-0.930
83,0.590,-0.780
84,0.225,-0.635
85,-0.055,-0.475
86,-0.185,-0.360
87,-0.190,-0.310
88,-0.195,-0.295
89,-0.160,-0.290
90,-0.135,-0.295
91,-0.125,-0.280
92,-0.100,-0.275
93,-0.100,-0.280
94,-0.120,-0.290
95,-0.135,-0.305
96,-0.155,-0.290
97,-0.150,-0.285
98,-0.125,-0.285
99,-0.105,-0.295
100,-0.100,-0.300
101,-0.115,-0.305
102,-0.125,-0.305
103,-0.120,-0.295
104,-0.100,-0.295
105,-0.095,-0.290
106,-0.105,-0.300
107,-0.115,-0.330
108,-0.120,-0.320
109,-0.110,-0.305
110,-0.105,-0.290
111,-0.095,-0.295
112,-0.095,-0.305
113,-0.110,-0.315
114,-0.110,-0.320
115,-0.105,-0.305
116,-0.090,-0.295
117,-0.085,-0.310
118,-0.090,-0.310
119,-0.115,-0.320
120,-0.105,-0.325
121,-0.090,-0.305
122,-0.085,-0.300
123,-0.085,-0.285
124,-0.085,-0.310
125,-0.090,-0.315
126,-0.100,-0.310
127,-0.095,-0.295
128,-0.080,-0.285
129,-0.060,-0.285
130,-0.075,-0.295
131,-0.080,-0.315
132,-0.085,-0.320
133,-0.075,-0.300
134,-0.070,-0.285
135,-0.055,-0.290
136,-0.070,-0.305
137,-0.085,-0.300
138,-0.080,-0.310
139,-0.085,-0.295
140,-0.055,-0.300
141,-0.040,-0.290
142,-0.050,-0.295
143,-0.065,-0.305
144,-0.060,-0.305
145,-0.065,-0.295
146,-0.050,-0.285
147,-0.035,-0.290
148,-0.045,-0.290
149,-0.045,-0.290
150,-0.045,-0.305
151,-0.045,-0.290
152,-0.030,-0.270
153,-0.035,-0.265
154,-0.020,-0.285
155,-0.040,-0.295
156,-0.050,-0.310
157,-0.055,-0.290
158,-0.030,-0.280
159,-0.025,-0.270
160,-0.030,-0.290
161,-0.055,-0.300
162,-0.055,-0.295
163,-0.050,-0.280
164,-0.040,-0.270
165,-0.040,-0.290
166,-0.050,-0.295
167,-0.065,-0.300
168,-0.085,-0.295
169,-0.080,-0.295
170,-0.080,-0.280
171,-0.070,-0.285
172,-0.070,-0.310
173,-0.080,-0.315
174,-0.090,-0.315
175,-0.090,-0.310
176,-0.095,-0.310
177,-0.090,-0.300
178,-0.090,-0.310
179,-0.115,-0.320
180,-0.135,-0.330
181,-0.115,-0.325
182,-0.105,-0.320
183,-0.100,-0.330
184,-0.110,-0.335
185,-0.125,-0.340
186,-0.140,-0.335
187,-0.140,-0.330
188,-0.120,-0.320
189,-0.115,-0.330
190,-0.130,-0.345
191,-0.135,-0.360
192,-0.150,-0.360
193,-0.145,-0.340
194,-0.130,-0.325
195,-0.130,-0.335
196,-0.145,-0.340
197,-0.150,-0.375
198,-0.160,-0.360
199,-0.150,-0.350
200,-0.130,-0.335
201,-0.125,-0.335
202,-0.125,-0.350
203,-0.155,-0.370
204,-0.155,-0.360
205,-0.155,-0.350
206,-0.140,-0.340
207,-0.125,-0.350
208,-0.130,-0.355
209,-0.135,-0.370
210,-0.150,-0.360
211,-0.155,-0.345
212,-0.135,-0.340
213,-0.130,-0.340
214,-0.135,-0.350
215,-0.140,-0.365
216,-0.165,-0.360
217,-0.150,-0.360
218,-0.135,-0.340
219,-0.125,-0.330
220,-0.145,-0.350
221,-0.150,-0.360
222,-0.160,-0.365
223,-0.155,-0.355
224,-0.135,-0.345
225,-0.140,-0.350
226,-0.150,-0.355
227,-0.145,-0.375
228,-0.160,-0.365
229,-0.155,-0.360
230,-0.150,-0.335
231,-0.130,-0.350
232,-0.125,-0.365
233,-0.145,-0.385
234,-0.150,-0.375
235,-0.145,-0.365
236,-0.135,-0.360
237,-0.120,-0.355
238,-0.130,-0.360
239,-0.130,-0.370
240,-0.150,-0.380
241,-0.130,-0.355
242,-0.125,-0.365
243,-0.110,-0.350
244,-0.120,-0.365
245,-0.135,-0.385
246,-0.140,-0.385
247,-0.130,-0.355
248,-0.115,-0.350
249,-0.105,-0.360
250,-0.110,-0.365
251,-0.115,-0.375
252,-0.125,-0.380
253,-0.125,-0.360
254,-0.105,-0.355
255,-0.100,-0.340
256,-0.105,-0.355
257,-0.110,-0.365
258,-0.120,-0.375
259,-0.110,-0.365
260,-0.100,-0.350
261,-0.080,-0.355
262,-0.085,-0.360
263,-0.120,-0.385
264,-0.110,-0.380
265,-0.105,-0.370
266,-0.105,-0.355
267,-0.090,-0.360
268,-0.085,-0.375
269,-0.105,-0.380
270,-0.120,-0.365
271,-0.105,-0.365
272,-0.105,-0.355
273,-0.090,-0.355
274,-0.090,-0.365
275,-0.115,-0.390
276,-0.130,-0.380
277,-0.110,-0.370
278,-0.095,-0.355
279,-0.085,-0.355
280,-0.095,-0.365
281,-0.095,-0.385
282,-0.120,-0.380
283,-0.100,-0.370
284,-0.090,-0.350
285,-0.100,-0.360
286,-0.095,-0.370
287,-0.105,-0.380
288,-0.110,-0.385
289,-0.100,-0.370
290,-0.090,-0.355
291,-0.070,-0.360
292,-0.085,-0.370
293,-0.095,-0.365
294,-0.110,-0.375
295,-0.090,-0.365
296,-0.085,-0.350
297,-0.075,-0.340
298,-0.085,-0.360
299,-0.095,-0.375
300,-0.125,-0.360
301,-0.090,-0.340
302,-0.070,-0.325
303,-0.055,-0.320
304,-0.060,-0.325
305,-0.045,-0.335
306,-0.055,-0.320
307,-0.050,-0.310
308,-0.020,-0.290
309,-0.005,-0.285
310,0.000,-0.295
311,0.020,-0.290
312,0.020,-0.285
313,0.050,-0.290
314,0.115,-0.310
315,0.175,-0.340
316,0.200,-0.380
317,0.200,-0.400
318,0.180,-0.410
319,0.200,-0.400
320,0.205,-0.385
321,0.190,-0.385
322,0.145,-0.395
323,0.115,-0.400
324,0.095,-0.385
325,0.075,-0.360
326,0.070,-0.350
327,0.065,-0.370
328,0.020,-0.385
329,-0.020,-0.395
330,-0.075,-0.395
331,-0.085,-0.405
332,-0.105,-0.395
333,-0.100,-0.395
334,-0.120,-0.410
335,-0.160,-0.410
336,-0.160,-0.405
337,-0.155,-0.395
338,-0.145,-0.395
339,-0.130,-0.395
340,-0.145,-0.400
341,-0.155,-0.410
342,-0.150,-0.410
343,-0.145,-0.410
344,-0.135,-0.390
345,-0.115,-0.380
346,-0.120,-0.375
347,-0.115,-0.375
348,-0.125,-0.340
349,-0.130,-0.290
350,-0.115,-0.270
351,-0.105,-0.300
352,-0.100,-0.395
353,-0.115,-0.550
354,-0.155,-0.755
355,-0.140,-0.990
356,-0.040,-1.180
357,0.140,-1.325
358,0.365,-1.340
359,0.570,-1.285
360,0.735,-1.160
361,0.805,-0.995
362,0.725,-0.830
363,0.465,-0.665
364,0.150,-0.540
365,-0.075,-0.435
366,-0.175,-0.370
367,-0.175,-0.340
368,-0.140,-0.310
369,-0.110,-0.310
370,-0.105,-0.330
371,-0.135,-0.345
372,-0.155,-0.360
373,-0.160,-0.340
374,-0.130,-0.330
375,-0.120,-0.330
376,-0.120,-0.350
377,-0.140,-0.365
378,-0.150,-0.360
379,-0.160,-0.350
380,-0.140,-0.340
381,-0.120,-0.345
382,-0.125,-0.345
383,-0.135,-0.375
384,-0.160,-0.355
385,-0.155,-0.350
386,-0.125,-0.340
387,-0.110,-0.340
388,-0.120,-0.355
389,-0.130,-0.370
390,-0.120,-0.375
391,-0.105,-0.375
392,-0.100,-0.355
393,-0.075,-0.360
394,-0.075,-0.370
395,-0.080,-0.390
396,-0.095,-0.390
397,-0.085,-0.370
398,-0.075,-0.360
399,-0.055,-0.365
400,-0.055,-0.360
401,-0.075,-0.375
402,-0.070,-0.375
403,-0.075,-0.360
404,-0.080,-0.345
405,-0.070,-0.340
406,-0.085,-0.360
407,-0.100,-0.365
408,-0.110,-0.340
409,-0.100,-0.335
410,-0.115,-0.325
411,-0.085,-0.335
412,-0.085,-0.330
413,-0.105,-0.365
414,-0.110,-0.350
415,-0.120,-0.335
416,-0.120,-0.325
417,-0.105,-0.315
418,-0.115,-0.325
419,-0.120,-0.330
420,-0.135,-0.325
421,-0.105,-0.320
422,-0.100,-0.300
423,-0.085,-0.305
424,-0.095,-0.305
425,-0.115,-0.315
426,-0.115,-0.315
427,-0.120,-0.300
428,-0.110,-0.295
429,-0.095,-0.310
430,-0.095,-0.320
431,-0.105,-0.325
432,-0.120,-0.320
433,-0.110,-0.300
434,-0.100,-0.285
435,-0.085,-0.280
436,-0.105,-0.300
437,-0.120,-0.310
438,-0.125,-0.310
439,-0.120,-0.315
440,-0.130,-0.295
441,-0.115,-0.310
442,-0.125,-0.310
443,-0.150,-0.325
444,-0.175,-0.330
445,-0.170,-0.320
446,-0.140,-0.305
447,-0.145,-0.315
448,-0.155,-0.330
449,-0.175,-0.350
450,-0.185,-0.340
451,-0.205,-0.335
452,-0.210,-0.335
453,-0.190,-0.340
454,-0.200,-0.345
455,-0.210,-0.365
456,-0.220,-0.365
457,-0.230,-0.360
458,-0.210,-0.335
459,-0.190,-0.355
460,-0.195,-0.355
461,-0.210,-0.380
462,-0.240,-0.360
463,-0.235,-0.365
464,-0.235,-0.350
465,-0.210,-0.365
466,-0.220,-0.365
467,-0.225,-0.365
468,-0.245,-0.365
469,-0.235,-0.355
470,-0.225,-0.355
471,-0.220,-0.350
472,-0.235,-0.350
473,-0.245,-0.365
474,-0.260,-0.375
475,-0.255,-0.350
476,-0.245,-0.350
477,-0.230,-0.360
478,-0.230,-0.370
479,-0.250,-0.385
480,-0.270,-0.375
481,-0.250,-0.360
482,-0.250,-0.350
483,-0.260,-0.360
484,-0.260,-0.365
485,-0.275,-0.375
486,-0.290,-0.360
487,-0.285,-0.365
488,-0.265,-0.350
489,-0.260,-0.355
490,-0.255,-0.370
491,-0.265,-0.380
492,-0.275,-0.380
493,-0.265,-0.370
494,-0.270,-0.365
495,-0.265,-0.365
496,-0.255,-0.385
497,-0.265,-0.395
498,-0.280,-0.380
499,-0.265,-0.365
500,-0.265,-0.360
501,-0.250,-0.375
502,-0.260,-0.385
503,-0.270,-0.400
504,-0.270,-0.400
505,-0.255,-0.375
506,-0.245,-0.350
507,-0.225,-0.365
508,-0.225,-0.375
509,-0.260,-0.395
510,-0.265,-0.390
511,-0.260,-0.390
512,-0.255,-0.380
513,-0.245,-0.395
514,-0.235,-0.395
515,-0.270,-0.405
516,-0.250,-0.405
517,-0.250,-0.395
518,-0.225,-0.375
519,-0.225,-0.390
520,-0.225,-0.400
521,-0.235,-0.415
522,-0.245,-0.410
523,-0.240,-0.400
524,-0.230,-0.385
525,-0.225,-0.390
526,-0.235,-0.415
527,-0.240,-0.425
528,-0.250,-0.415
529,-0.245,-0.400
530,-0.245,-0.390
531,-0.190,-0.390
532,-0.215,-0.400
533,-0.215,-0.415
534,-0.235,-0.410
535,-0.225,-0.395
536,-0.225,-0.405
537,-0.220,-0.390
538,-0.200,-0.405
539,-0.220,-0.430
540,-0.230,-0.430
541,-0.235,-0.410
542,-0.220,-0.395
543,-0.205,-0.405
544,-0.205,-0.405
545,-0.195,-0.415
546,-0.230,-0.420
547,-0.205,-0.400
548,-0.200,-0.390
549,-0.190,-0.385
550,-0.195,-0.405
551,-0.215,-0.420
552,-0.215,-0.415
553,-0.200,-0.400
554,-0.190,-0.380
555,-0.170,-0.390
556,-0.175,-0.400
557,-0.185,-0.420
558,-0.210,-0.425
559,-0.190,-0.405
560,-0.185,-0.385
561,-0.185,-0.390
562,-0.190,-0.400
563,-0.185,-0.415
564,-0.200,-0.420
565,-0.200,-0.390
566,-0.180,-0.390
567,-0.180,-0.395
568,-0.175,-0.405
569,-0.200,-0.410
570,-0.195,-0.410
571,-0.200,-0.385
572,-0.190,-0.385
573,-0.190,-0.385
574,-0.175,-0.400
575,-0.180,-0.405
576,-0.200,-0.410
577,-0.195,-0.400
578,-0.165,-0.380
579,-0.155,-0.380
580,-0.175,-0.405
581,-0.195,-0.405
582,-0.195,-0.395
583,-0.185,-0.390
584,-0.165,-0.375
585,-0.150,-0.385
586,-0.145,-0.375
587,-0.150,-0.385
588,-0.170,-0.365
589,-0.150,-0.345
590,-0.135,-0.330
591,-0.105,-0.330
592,-0.110,-0.335
593,-0.110,-0.355
594,-0.100,-0.355
595,-0.080,-0.345
596,-0.055,-0.335
597,-0.015,-0.350
598,0.000,-0.380
599,0.020,-0.415
600,0.030,-0.430
601,0.055,-0.440
602,0.065,-0.415
603,0.090,-0.425
604,0.090,-0.440
605,0.065,-0.450
606,0.045,-0.435
607,0.050,-0.420
608,0.030,-0.405
609,0.030,-0.395
610,-0.010,-0.395
611,-0.025,-0.410
612,-0.050,-0.395
613,-0.070,-0.390
614,-0.090,-0.385
615,-0.090,-0.395
616,-0.145,-0.390
617,-0.175,-0.415
618,-0.185,-0.415
619,-0.205,-0.420
620,-0.205,-0.385
621,-0.200,-0.395
622,-0.200,-0.420
623,-0.200,-0.420
624,-0.210,-0.425
625,-0.215,-0.395
626,-0.200,-0.390
627,-0.190,-0.380
628,-0.190,-0.395
629,-0.195,-0.405
630,-0.205,-0.400
631,-0.185,-0.365
632,-0.180,-0.330
633,-0.170,-0.310
634,-0.165,-0.330
635,-0.180,-0.350
636,-0.190,-0.430
637,-0.195,-0.505
638,-0.210,-0.610
639,-0.230,-0.775
640,-0.215,-0.945
641,-0.145,-1.105
642,-0.005,-1.200
643,0.190,-1.220
644,0.415,-1.170
645,0.615,-1.075
646,0.695,-0.960
647,0.580,-0.835
648,0.275,-0.690
649,-0.020,-0.535
650,-0.195,-0.415
651,-0.260,-0.350
652,-0.250,-0.325
653,-0.245,-0.335
654,-0.205,-0.325
655,-0.165,-0.305
656,-0.155,-0.290
657,-0.140,-0.295
658,-0.155,-0.305
659,-0.180,-0.325
660,-0.195,-0.325
661,-0.190,-0.305
662,-0.185,-0.305
663,-0.165,-0.300
664,-0.190,-0.315
665,-0.180,-0.325
666,-0.200,-0.325
667,-0.185,-0.300
668,-0.175,-0.295
669,-0.170,-0.290
670,-0.175,-0.305
671,-0.175,-0.320
672,-0.180,-0.305
673,-0.160,-0.295
674,-0.160,-0.300
675,-0.150,-0.280
676,-0.150,-0.295
677,-0.155,-0.300
678,-0.160,-0.315
679,-0.155,-0.290
680,-0.145,-0.290
681,-0.125,-0.290
682,-0.135,-0.305
683,-0.150,-0.315
684,-0.155,-0.305
685,-0.150,-0.295
686,-0.135,-0.290
687,-0.120,-0.285
688,-0.120,-0.290
689,-0.130,-0.305
690,-0.145,-0.305
691,-0.130,-0.290
692,-0.125,-0.280
693,-0.120,-0.290
694,-0.115,-0.290
695,-0.125,-0.315
696,-0.145,-0.305
697,-0.135,-0.300
698,-0.130,-0.280
699,-0.110,-0.295
700,-0.115,-0.295
701,-0.110,-0.310
702,-0.135,-0.310
703,-0.130,-0.295
704,-0.105,-0.290
705,-0.090,-0.285
706,-0.100,-0.295
707,-0.110,-0.305
708,-0.125,-0.300
709,-0.100,-0.290
710,-0.090,-0.275
711,-0.085,-0.270
712,-0.095,-0.285
713,-0.095,-0.305
714,-0.095,-0.295
715,-0.100,-0.285
716,-0.095,-0.280
717,-0.085,-0.280
718,-0.075,-0.290
719,-0.100,-0.305
720,-0.095,-0.300
721,-0.095,-0.295
722,-0.085,-0.275
723,-0.080,-0.290
724,-0.080,-0.290
725,-0.110,-0.315
726,-0.135,-0.315
727,-0.120,-0.295
728,-0.120,-0.285
729,-0.105,-0.285
730,-0.115,-0.305
731,-0.135,-0.310
732,-0.145,-0.305
733,-0.160,-0.310
734,-0.135,-0.300
735,-0.140,-0.300
736,-0.160,-0.305
737,-0.165,-0.320
738,-0.185,-0.315
739,-0.170,-0.310
740,-0.160,-0.305
741,-0.150,-0.300
742,-0.160,-0.325
743,-0.155,-0.325
744,-0.175,-0.320
745,-0.175,-0.310
746,-0.150,-0.295
747,-0.145,-0.295
748,-0.155,-0.310
749,-0.155,-0.320
750,-0.180,-0.320
751,-0.160,-0.305
752,-0.165,-0.295
753,-0.150,-0.305
754,-0.155,-0.320
755,-0.170,-0.315
756,-0.185,-0.325
757,-0.170,-0.305
758,-0.170,-0.285
759,-0.160,-0.290
760,-0.165,-0.320
761,-0.180,-0.320
762,-0.190,-0.325
763,-0.185,-0.320
764,-0.155,-0.305
765,-0.155,-0.310
766,-0.175,-0.310
767,-0.190,-0.325
768,-0.190,-0.320
769,-0.180,-0.300
770,-0.175,-0.305
771,-0.160,-0.315
772,-0.160,-0.315
773,-0.185,-0.345
774,-0.185,-0.325
775,-0.195,-0.325
776,-0.170,-0.310
777,-0.170,-0.305
778,-0.175,-0.330
779,-0.185,-0.330
780,-0.185,-0.335
781,-0.185,-0.340
782,-0.170,-0.310
783,-0.155,-0.310
784,-0.165,-0.315
785,-0.170,-0.345
786,-0.190,-0.340
787,-0.180,-0.325
788,-0.170,-0.310
789,-0.160,-0.330
790,-0.155,-0.335
791,-0.175,-0.345
792,-0.180,-0.340
793,-0.180,-0.330
794,-0.155,-0.325
795,-0.160,-0.315
796,-0.160,-0.325
797,-0.165,-0.345
798,-0.165,-0.345
799,-0.155,-0.325
800,-0.150,-0.310
801,-0.125,-0.320
802,-0.130,-0.345
803,-0.155,-0.345
804,-0.170,-0.345
805,-0.165,-0.330
806,-0.150,-0.315
807,-0.130,-0.320
808,-0.145,-0.325
809,-0.155,-0.335
810,-0.170,-0.340
811,-0.160,-0.330
812,-0.155,-0.325
813,-0.145,-0.320
814,-0.145,-0.345
815,-0.170,-0.355
816,-0.165,-0.345
817,-0.150,-0.330
818,-0.145,-0.310
819,-0.140,-0.320
820,-0.145,-0.330
821,-0.155,-0.340
822,-0.175,-0.340
823,-0.160,-0.330
824,-0.140,-0.310
825,-0.115,-0.325
826,-0.135,-0.330
827,-0.150,-0.335
828,-0.150,-0.340
829,-0.150,-0.340
830,-0.125,-0.310
831,-0.115,-0.305
832,-0.115,-0.310
833,-0.130,-0.340
834,-0.150,-0.325
835,-0.140,-0.315
836,-0.140,-0.315
837,-0.120,-0.300
838,-0.115,-0.295
839,-0.115,-0.310
840,-0.110,-0.305
841,-0.100,-0.280
842,-0.070,-0.270
843,-0.050,-0.265
844,-0.045,-0.270
845,-0.040,-0.280
846,-0.060,-0.265
847,-0.040,-0.260
848,-0.005,-0.250
849,0.055,-0.250
850,0.110,-0.305
851,0.140,-0.320
852,0.155,-0.340
853,0.160,-0.315
854,0.150,-0.305
855,0.170,-0.315
856,0.160,-0.330
857,0.125,-0.345
858,0.095,-0.340
859,0.080,-0.335
860,0.065,-0.310
861,0.085,-0.320
862,0.065,-0.320
863,0.020,-0.345
864,-0.025,-0.345
865,-0.070,-0.335
866,-0.095,-0.335
867,-0.110,-0.330
868,-0.130,-0.335
869,-0.165,-0.360
870,-0.175,-0.355
871,-0.185,-0.340
872,-0.165,-0.335
873,-0.150,-0.335
874,-0.155,-0.345
875,-0.175,-0.355
876,-0.180,-0.345
877,-0.160,-0.325
878,-0.170,-0.315
879,-0.140,-0.305
880,-0.130,-0.290
881,-0.145,-0.300
882,-0.160,-0.310
883,-0.160,-0.380
884,-0.160,-0.505
885,-0.160,-0.690
886,-0.145,-0.865
887,-0.065,-1.005
888,0.115,-1.070
889,0.360,-1.060
890,0.575,-1.005
891,0.735,-0.945
892,0.795,-0.875
893,0.760,-0.785
894,0.560,-0.700
895,0.310,-0.580
896,0.050,-0.470
897,-0.120,-0.395
898,-0.215,-0.340
899,-0.245,-0.310
900,-0.230,-0.265
901,-0.190,-0.255
902,-0.150,-0.235
903,-0.120,-0.230
904,-0.120,-0.245
905,-0.155,-0.250
906,-0.170,-0.255
907,-0.165,-0.230
908,-0.150,-0.215
909,-0.140,-0.235
910,-0.160,-0.245
911,-0.160,-0.260
912,-0.160,-0.255
913,-0.160,-0.245
914,-0.150,-0.225
915,-0.140,-0.220
916,-0.140,-0.230
917,-0.155,-0.240
918,-0.155,-0.250
919,-0.155,-0.235
920,-0.140,-0.225
921,-0.130,-0.225
922,-0.125,-0.235
923,-0.125,-0.240
924,-0.135,-0.245
925,-0.140,-0.230
926,-0.120,-0.215
927,-0.120,-0.215
928,-0.115,-0.240
929,-0.120,-0.255
930,-0.125,-0.235
931,-0.120,-0.230
932,-0.100,-0.225
933,-0.090,-0.230
934,-0.095,-0.235
935,-0.110,-0.260
936,-0.105,-0.245
937,-0.120,-0.235
938,-0.100,-0.225
939,-0.095,-0.225
940,-0.110,-0.225
941,-0.105,-0.250
942,-0.125,-0.245
943,-0.110,-0.225
944,-0.105,-0.220
945,-0.085,-0.205
946,-0.095,-0.230
947,-0.095,-0.235
948,-0.110,-0.225
949,-0.100,-0.225
950,-0.090,-0.200
951,-0.070,-0.205
952,-0.070,-0.220
953,-0.080,-0.235
954,-0.105,-0.230
955,-0.085,-0.210
956,-0.075,-0.200
957,-0.050,-0.205
958,-0.055,-0.205
959,-0.060,-0.220
960,-0.070,-0.225
961,-0.080,-0.205
962,-0.075,-0.190
963,-0.045,-0.210
964,-0.045,-0.215
965,-0.060,-0.220
966,-0.060,-0.215
967,-0.055,-0.205
968,-0.045,-0.190
969,-0.050,-0.195
970,-0.055,-0.205
971,-0.055,-0.230
972,-0.065,-0.225
973,-0.065,-0.200
974,-0.040,-0.175
975,-0.045,-0.185
976,-0.050,-0.200
977,-0.070,-0.225
978,-0.085,-0.205
979,-0.075,-0.205
980,-0.065,-0.205
981,-0.065,-0.200
982,-0.065,-0.225
983,-0.080,-0.235
984,-0.100,-0.235
985,-0.095,-0.215
986,-0.100,-0.205
987,-0.100,-0.225
988,-0.105,-0.235
989,-0.120,-0.250
990,-0.120,-0.235
991,-0.130,-0.230
992,-0.120,-0.220
993,-0.105,-0.235
994,-0.120,-0.245
995,-0.140,-0.260
996,-0.150,-0.250
997,-0.130,-0.230
998,-0.130,-0.245
999,-0.130,-0.255
1000,-0.135,-0.270
1001,-0.145,-0.270
1002,-0.150,-0.255
1003,-0.140,-0.245
1004,-0.135,-0.255
1005,-0.160,-0.275
1006,-0.165,-0.280
1007,-0.165,-0.280
1008,-0.155,-0.265
1009,-0.150,-0.265
1010,-0.135,-0.245
1011,-0.125,-0.255
1012,-0.160,-0.280
1013,-0.160,-0.275
1014,-0.160,-0.270
1015,-0.150,-0.260
1016,-0.135,-0.265
1017,-0.150,-0.255
1018,-0.150,-0.280
1019,-0.145,-0.270
1020,-0.135,-0.265
1021,-0.120,-0.260
1022,-0.115,-0.260
1023,-0.120,-0.270
1024,-0.125,-0.290
1025,-0.155,-0.290
1026,-0.140,-0.275
1027,-0.135,-0.260
1028,-0.115,-0.265
1029,-0.125,-0.285
1030,-0.145,-0.300
1031,-0.165,-0.290
1032,-0.155,-0.290
1033,-0.135,-0.260
1034,-0.120,-0.280
1035,-0.125,-0.280
1036,-0.145,-0.290
1037,-0.155,-0.295
1038,-0.145,-0.280
1039,-0.140,-0.270
1040,-0.140,-0.290
1041,-0.145,-0.285
1042,-0.160,-0.300
1043,-0.160,-0.305
1044,-0.150,-0.285
1045,-0.145,-0.280
1046,-0.155,-0.290
1047,-0.155,-0.300
1048,-0.155,-0.320
1049,-0.150,-0.300
1050,-0.160,-0.290
1051,-0.145,-0.275
1052,-0.140,-0.285
1053,-0.140,-0.285
1054,-0.160,-0.305
1055,-0.165,-0.295
1056,-0.140,-0.290
1057,-0.140,-0.290
1058,-0.130,-0.290
1059,-0.125,-0.300
1060,-0.140,-0.315
1061,-0.140,-0.305
1062,-0.135,-0.295
1063,-0.125,-0.280
1064,-0.115,-0.290
1065,-0.125,-0.285
1066,-0.140,-0.300
1067,-0.135,-0.305
1068,-0.125,-0.285
1069,-0.120,-0.285
1070,-0.110,-0.285
1071,-0.120,-0.305
1072,-0.125,-0.305
1073,-0.145,-0.300
1074,-0.140,-0.300
1075,-0.120,-0.295
1076,-0.100,-0.285
1077,-0.100,-0.295
1078,-0.115,-0.310
1079,-0.115,-0.305
1080,-0.120,-0.290
1081,-0.095,-0.280
1082,-0.105,-0.285
1083,-0.110,-0.300
1084,-0.110,-0.305
1085,-0.120,-0.305
1086,-0.105,-0.295
1087,-0.120,-0.285
1088,-0.110,-0.290
1089,-0.105,-0.285
1090,-0.110,-0.305
1091,-0.115,-0.310
1092,-0.115,-0.305
1093,-0.100,-0.280
1094,-0.090,-0.290
1095,-0.090,-0.295
1096,-0.095,-0.310
1097,-0.100,-0.295
1098,-0.100,-0.295
1099,-0.100,-0.280
1100,-0.080,-0.290
1101,-0.080,-0.305
1102,-0.090,-0.315
1103,-0.090,-0.305
1104,-0.095,-0.290
1105,-0.090,-0.275
1106,-0.070,-0.285
1107,-0.075,-0.290
1108,-0.090,-0.310
1109,-0.090,-0.310
1110,-0.100,-0.295
1111,-0.090,-0.285
1112,-0.085,-0.290
1113,-0.080,-0.305
1114,-0.080,-0.315
1115,-0.100,-0.305
1116,-0.095,-0.290
1117,-0.075,-0.280
1118,-0.065,-0.290
1119,-0.070,-0.295
1120,-0.105,-0.295
1121,-0.100,-0.305
1122,-0.095,-0.285
1123,-0.075,-0.265
1124,-0.065,-0.290
1125,-0.065,-0.285
1126,-0.075,-0.315
1127,-0.075,-0.310
1128,-0.060,-0.295
1129,-0.055,-0.270
1130,-0.045,-0.255
1131,-0.050,-0.255
1132,-0.055,-0.265
1133,-0.065,-0.250
1134,-0.040,-0.225
1135,-0.010,-0.225
1136,0.015,-0.220
1137,0.010,-0.230
1138,-0.010,-0.240
1139,-0.015,-0.240
1140,0.015,-0.225
1141,0.040,-0.215
1142,0.060,-0.235
1143,0.075,-0.255
1144,0.090,-0.295
1145,0.105,-0.300
1146,0.125,-0.305
1147,0.165,-0.305
1148,0.180,-0.300
1149,0.195,-0.325
1150,0.180,-0.330
1151,0.145,-0.330
1152,0.140,-0.310
1153,0.120,-0.300
1154,0.115,-0.285
1155,0.100,-0.275
1156,0.075,-0.295
1157,0.055,-0.300
1158,0.055,-0.280
1159,0.030,-0.260
1160,0.010,-0.275
1161,-0.030,-0.295
1162,-0.080,-0.310
1163,-0.095,-0.305
1164,-0.105,-0.295
1165,-0.110,-0.275
1166,-0.105,-0.290
1167,-0.120,-0.300
1168,-0.135,-0.315
1169,-0.145,-0.315
1170,-0.140,-0.300
1171,-0.125,-0.290
1172,-0.120,-0.285
1173,-0.125,-0.285
1174,-0.130,-0.305
1175,-0.130,-0.295
1176,-0.115,-0.270
1177,-0.105,-0.230
1178,-0.090,-0.210
1179,-0.105,-0.190
1180,-0.105,-0.200
1181,-0.120,-0.215
1182,-0.105,-0.245
1183,-0.100,-0.295
1184,-0.105,-0.400
1185,-0.140,-0.525
1186,-0.160,-0.670
1187,-0.120,-0.815
1188,-0.025,-0.940
1189,0.105,-1.040
1190,0.270,-1.105
1191,0.425,-1.115
1192,0.605,-1.065
1193,0.775,-0.970
1194,0.880,-0.825
1195,0.820,-0.675
1196,0.555,-0.545
1197,0.215,-0.420
1198,-0.055,-0.330
1199,-0.160,-0.265
1200,-0.185,-0.225
1201,-0.140,-0.205
1202,-0.090,-0.200
1203,-0.080,-0.205
1204,-0.085,-0.215
1205,-0.095,-0.215
1206,-0.105,-0.205
1207,-0.120,-0.200
1208,-0.100,-0.190
1209,-0.115,-0.205
1210,-0.120,-0.225
1211,-0.110,-0.220
1212,-0.105,-0.200
1213,-0.105,-0.190
1214,-0.085,-0.210
1215,-0.095,-0.205
1216,-0.105,-0.220
1217,-0.110,-0.210
1218,-0.100,-0.205
1219,-0.080,-0.200
1220,-0.070,-0.205
1221,-0.085,-0.205
1222,-0.090,-0.225
1223,-0.095,-0.215
1224,-0.090,-0.210
1225,-0.065,-0.195
1226,-0.070,-0.200
1227,-0.065,-0.215
1228,-0.075,-0.225
1229,-0.080,-0.215
1230,-0.060,-0.205
1231,-0.050,-0.190
1232,-0.045,-0.200
1233,-0.055,-0.215
1234,-0.055,-0.220
1235,-0.065,-0.225
1236,-0.060,-0.220
1237,-0.050,-0.205
1238,-0.040,-0.215
1239,-0.045,-0.220
1240,-0.070,-0.220
1241,-0.070,-0.220
1242,-0.055,-0.210
1243,-0.050,-0.210
1244,-0.040,-0.215
1245,-0.045,-0.220
1246,-0.050,-0.225
1247,-0.065,-0.225
1248,-0.070,-0.210
1249,-0.040,-0.190
1250,-0.035,-0.205
1251,-0.025,-0.215
1252,-0.055,-0.230
1253,-0.055,-0.220
1254,-0.050,-0.200
1255,-0.050,-0.200
1256,-0.025,-0.210
1257,-0.045,-0.210
1258,-0.050,-0.230
1259,-0.055,-0.225
1260,-0.045,-0.210
1261,-0.030,-0.195
1262,-0.020,-0.215
1263,-0.030,-0.205
1264,-0.040,-0.220
1265,-0.040,-0.215
1266,-0.035,-0.205
1267,-0.035,-0.195
1268,-0.005,-0.200
1269,-0.035,-0.205
1270,-0.040,-0.220
1271,-0.050,-0.225
1272,-0.045,-0.200
1273,-0.035,-0.190
1274,-0.030,-0.195
1275,-0.035,-0.210
1276,-0.045,-0.220
1277,-0.070,-0.220
1278,-0.055,-0.215
1279,-0.045,-0.205
1280,-0.050,-0.220
1281,-0.060,-0.215
1282,-0.075,-0.225
1283,-0.105,-0.230
1284,-0.100,-0.220
1285,-0.090,-0.200
1286,-0.090,-0.225
1287,-0.105,-0.225
1288,-0.125,-0.255
1289,-0.120,-0.255
1290,-0.115,-0.235
1291,-0.100,-0.225
1292,-0.090,-0.235
1293,-0.105,-0.245
1294,-0.120,-0.260
1295,-0.145,-0.255
1296,-0.140,-0.255
1297,-0.120,-0.240
1298,-0.115,-0.245
1299,-0.130,-0.265
1300,-0.140,-0.265
1301,-0.155,-0.250
1302,-0.145,-0.240
1303,-0.155,-0.235
1304,-0.145,-0.245
1305,-0.140,-0.270
1306,-0.160,-0.275
1307,-0.145,-0.275
1308,-0.145,-0.265
1309,-0.140,-0.260
1310,-0.150,-0.255
1311,-0.135,-0.260
1312,-0.150,-0.275
1313,-0.165,-0.275
1314,-0.160,-0.260
1315,-0.170,-0.260
1316,-0.145,-0.250
1317,-0.145,-0.270
1318,-0.185,-0.285
1319,-0.180,-0.280
1320,-0.180,-0.275
1321,-0.160,-0.270
1322,-0.140,-0.275
1323,-0.155,-0.285
1324,-0.170,-0.290
1325,-0.180,-0.285
1326,-0.185,-0.280
1327,-0.165,-0.265
1328,-0.160,-0.275
1329,-0.185,-0.290
1330,-0.180,-0.300
1331,-0.190,-0.295
1332,-0.180,-0.290
1333,-0.160,-0.270
1334,-0.150,-0.275
1335,-0.150,-0.280
1336,-0.160,-0.290
1337,-0.170,-0.295
1338,-0.170,-0.280
1339,-0.155,-0.270
1340,-0.150,-0.285
1341,-0.160,-0.290
1342,-0.175,-0.310
1343,-0.190,-0.310
1344,-0.195,-0.280
1345,-0.185,-0.275
1346,-0.170,-0.280
1347,-0.180,-0.285
1348,-0.165,-0.310
1349,-0.180,-0.315
1350,-0.165,-0.290
1351,-0.165,-0.295
1352,-0.155,-0.295
1353,-0.180,-0.310
1354,-0.195,-0.315
1355,-0.200,-0.310
1356,-0.180,-0.305
1357,-0.170,-0.290
1358,-0.165,-0.280
1359,-0.165,-0.295
1360,-0.175,-0.305
1361,-0.180,-0.300
1362,-0.170,-0.290
1363,-0.160,-0.280
1364,-0.145,-0.290
1365,-0.155,-0.305
1366,-0.170,-0.315
1367,-0.165,-0.310
1368,-0.175,-0.300
1369,-0.170,-0.290
1370,-0.140,-0.300
1371,-0.150,-0.310
1372,-0.170,-0.320
1373,-0.175,-0.315
1374,-0.170,-0.300
1375,-0.150,-0.295
1376,-0.145,-0.285
1377,-0.150,-0.300
1378,-0.160,-0.320
1379,-0.175,-0.310
1380,-0.155,-0.300
1381,-0.150,-0.290
1382,-0.140,-0.290
1383,-0.145,-0.310
1384,-0.150,-0.330
1385,-0.180,-0.315
1386,-0.170,-0.295
1387,-0.145,-0.285
1388,-0.130,-0.285
1389,-0.145,-0.300
1390,-0.155,-0.305
1391,-0.185,-0.330
1392,-0.165,-0.315
1393,-0.155,-0.295
1394,-0.140,-0.300
1395,-0.140,-0.305
1396,-0.150,-0.315
1397,-0.160,-0.320
1398,-0.155,-0.305
1399,-0.155,-0.305
1400,-0.140,-0.310
1401,-0.140,-0.315
1402,-0.145,-0.325
1403,-0.150,-0.310
1404,-0.165,-0.295
1405,-0.145,-0.285
1406,-0.130,-0.300
1407,-0.140,-0.315
1408,-0.145,-0.330
1409,-0.160,-0.315
1410,-0.160,-0.315
1411,-0.145,-0.295
1412,-0.130,-0.300
1413,-0.130,-0.305
1414,-0.155,-0.310
1415,-0.150,-0.305
1416,-0.145,-0.285
1417,-0.120,-0.270
1418,-0.115,-0.260
1419,-0.120,-0.255
1420,-0.135,-0.270
1421,-0.120,-0.250
1422,-0.110,-0.245
1423,-0.090,-0.230
1424,-0.075,-0.225
1425,-0.050,-0.230
1426,-0.055,-0.245
1427,-0.070,-0.225
1428,-0.035,-0.220
1429,0.000,-0.230
1430,0.020,-0.270
1431,0.050,-0.300
1432,0.075,-0.340
1433,0.090,-0.345
1434,0.095,-0.340
1435,0.115,-0.335
1436,0.120,-0.325
1437,0.115,-0.330
1438,0.085,-0.335
1439,0.060,-0.325
1440,0.040,-0.310
1441,0.040,-0.280
1442,0.035,-0.275
1443,0.015,-0.300
1444,-0.005,-0.310
1445,-0.025,-0.320
1446,-0.045,-0.305
1447,-0.070,-0.285
1448,-0.095,-0.300
1449,-0.130,-0.310
1450,-0.165,-0.325
1451,-0.165,-0.325
1452,-0.160,-0.320
1453,-0.175,-0.310
1454,-0.175,-0.305
1455,-0.180,-0.320
1456,-0.185,-0.330
1457,-0.200,-0.330
1458,-0.180,-0.315
1459,-0.170,-0.305
1460,-0.155,-0.305
1461,-0.150,-0.310
1462,-0.180,-0.315
1463,-0.170,-0.315
1464,-0.160,-0.280
1465,-0.150,-0.255
1466,-0.120,-0.220
1467,-0.110,-0.190
1468,-0.135,-0.170
1469,-0.150,-0.185
1470,-0.135,-0.225
1471,-0.115,-0.265
1472,-0.140,-0.405
1473,-0.165,-0.565
1474,-0.200,-0.755
1475,-0.175,-0.925
1476,-0.085,-1.070
1477,0.080,-1.180
1478,0.265,-1.235
1479,0.450,-1.220
1480,0.640,-1.145
1481,0.775,-1.010
1482,0.855,-0.865
1483,0.790,-0.710
1484,0.545,-0.570
1485,0.220,-0.445
1486,-0.055,-0.350
1487,-0.190,-0.255
1488,-0.220,-0.195
1489,-0.175,-0.185
1490,-0.145,-0.180
1491,-0.105,-0.200
1492,-0.105,-0.205
1493,-0.135,-0.205
1494,-0.130,-0.195
1495,-0.135,-0.200
1496,-0.115,-0.205
1497,-0.125,-0.195
1498,-0.135,-0.205
1499,-0.140,-0.220
1500,-0.115,-0.210
1501,-0.105,-0.195
1502,-0.100,-0.195
1503,-0.115,-0.215
1504,-0.120,-0.215
1505,-0.125,-0.220
1506,-0.125,-0.200
1507,-0.135,-0.195
1508,-0.110,-0.200
1509,-0.115,-0.215
1510,-0.125,-0.230
1511,-0.125,-0.225
1512,-0.115,-0.210
1513,-0.105,-0.205
1514,-0.075,-0.195
1515,-0.100,-0.210
1516,-0.115,-0.210
1517,-0.110,-0.215
1518,-0.095,-0.205
1519,-0.085,-0.190
1520,-0.060,-0.205
1521,-0.070,-0.215
1522,-0.080,-0.225
1523,-0.090,-0.205
1524,-0.070,-0.190
1525,-0.060,-0.180
1526,-0.045,-0.175
1527,-0.065,-0.200
1528,-0.065,-0.205
1529,-0.075,-0.200
1530,-0.070,-0.195
1531,-0.065,-0.190
1532,-0.060,-0.190
1533,-0.060,-0.195
1534,-0.065,-0.200
1535,-0.065,-0.200
1536,-0.060,-0.205
1537,-0.050,-0.185
1538,-0.060,-0.185
1539,-0.050,-0.210
1540,-0.050,-0.220
1541,-0.055,-0.200
1542,-0.035,-0.190
1543,-0.030,-0.180
1544,-0.010,-0.190
1545,-0.025,-0.200
1546,-0.035,-0.210
1547,-0.060,-0.215
1548,-0.040,-0.190
1549,-0.020,-0.165
1550,-0.020,-0.175
1551,-0.010,-0.190
1552,-0.030,-0.185
1553,-0.035,-0.190
1554,-0.020,-0.180
1555,-0.010,-0.160
1556,0.010,-0.170
1557,0.010,-0.190
1558,0.005,-0.200
1559,-0.015,-0.195
1560,-0.005,-0.175
1561,-0.005,-0.155
1562,-0.010,-0.160
1563,0.000,-0.170
1564,-0.020,-0.190
1565,-0.020,-0.190
1566,-0.020,-0.180
1567,-0.015,-0.165
1568,-0.005,-0.165
1569,-0.025,-0.190
1570,-0.045,-0.200
1571,-0.040,-0.205
1572,-0.035,-0.190
1573,-0.030,-0.185
1574,-0.020,-0.200
1575,-0.040,-0.205
1576,-0.065,-0.220
1577,-0.070,-0.210
1578,-0.065,-0.210
1579,-0.060,-0.190
1580,-0.050,-0.210
1581,-0.070,-0.220
1582,-0.080,-0.230
1583,-0.105,-0.230
1584,-0.095,-0.220
1585,-0.080,-0.210
1586,-0.070,-0.210
1587,-0.060,-0.220
1588,-0.085,-0.235
1589,-0.095,-0.240
1590,-0.100,-0.230
1591,-0.075,-0.225
1592,-0.075,-0.225
1593,-0.080,-0.235
1594,-0.100,-0.250
1595,-0.120,-0.240
1596,-0.105,-0.230
1597,-0.105,-0.215
1598,-0.095,-0.225
1599,-0.095,-0.230
1600,-0.100,-0.255
1601,-0.110,-0.235
1602,-0.115,-0.230
1603,-0.095,-0.210
1604,-0.095,-0.215
1605,-0.095,-0.215
1606,-0.105,-0.235
1607,-0.115,-0.235
1608,-0.110,-0.220
1609,-0.105,-0.215
1610,-0.075,-0.225
1611,-0.090,-0.235
1612,-0.090,-0.235
1613,-0.100,-0.240
1614,-0.095,-0.240
1615,-0.105,-0.215
1616,-0.085,-0.230
1617,-0.085,-0.235
1618,-0.105,-0.250
1619,-0.100,-0.250
1620,-0.115,-0.235
1621,-0.110,-0.220
1622,-0.105,-0.230
1623,-0.100,-0.240
1624,-0.110,-0.255
1625,-0.120,-0.250
1626,-0.100,-0.235
1627,-0.105,-0.215
1628,-0.095,-0.230
1629,-0.105,-0.235
1630,-0.110,-0.245
1631,-0.130,-0.260
1632,-0.120,-0.255
1633,-0.105,-0.235
1634,-0.100,-0.240
1635,-0.095,-0.235
1636,-0.105,-0.250
1637,-0.105,-0.245
1638,-0.100,-0.240
1639,-0.105,-0.225
1640,-0.080,-0.230
1641,-0.075,-0.240
1642,-0.105,-0.245
1643,-0.105,-0.245
1644,-0.100,-0.240
1645,-0.095,-0.220
1646,-0.080,-0.230
1647,-0.090,-0.245
1648,-0.090,-0.250
1649,-0.090,-0.255
1650,-0.095,-0.245
1651,-0.080,-0.230
1652,-0.070,-0.235
1653,-0.080,-0.240
1654,-0.095,-0.260
1655,-0.105,-0.250
1656,-0.105,-0.250
1657,-0.105,-0.235
1658,-0.085,-0.245
1659,-0.060,-0.255
1660,-0.095,-0.270
1661,-0.085,-0.265
1662,-0.080,-0.245
1663,-0.080,-0.240
1664,-0.055,-0.235
1665,-0.075,-0.235
1666,-0.085,-0.255
1667,-0.085,-0.255
1668,-0.075,-0.250
1669,-0.075,-0.230
1670,-0.070,-0.240
1671,-0.060,-0.250
1672,-0.075,-0.255
1673,-0.080,-0.255
1674,-0.075,-0.240
1675,-0.055,-0.230
1676,-0.050,-0.235
1677,-0.060,-0.250
1678,-0.080,-0.270
1679,-0.085,-0.265
1680,-0.070,-0.250
1681,-0.055,-0.240
1682,-0.040,-0.245
1683,-0.050,-0.245
1684,-0.065,-0.270
1685,-0.100,-0.245
1686,-0.070,-0.240
1687,-0.055,-0.225
1688,-0.040,-0.235
1689,-0.070,-0.250
1690,-0.050,-0.250
1691,-0.070,-0.245
1692,-0.050,-0.245
1693,-0.050,-0.235
1694,-0.035,-0.240
1695,-0.040,-0.250
1696,-0.055,-0.260
1697,-0.070,-0.250
1698,-0.070,-0.235
1699,-0.050,-0.240
1700,-0.040,-0.225
1701,-0.040,-0.250
1702,-0.050,-0.265
1703,-0.060,-0.245
1704,-0.075,-0.240
1705,-0.070,-0.225
1706,-0.055,-0.230
1707,-0.060,-0.240
1708,-0.075,-0.255
1709,-0.080,-0.245
1710,-0.065,-0.230
1711,-0.060,-0.220
1712,-0.045,-0.215
1713,-0.035,-0.230
1714,-0.040,-0.225
1715,-0.030,-0.210
1716,-0.025,-0.190
1717,0.005,-0.175
1718,0.010,-0.165
1719,0.005,-0.180
1720,0.005,-0.180
1721,0.005,-0.175
1722,0.025,-0.170
1723,0.050,-0.155
1724,0.070,-0.175
1725,0.095,-0.200
1726,0.110,-0.245
1727,0.130,-0.265
1728,0.150,-0.275
1729,0.170,-0.270
1730,0.185,-0.270
1731,0.170,-0.295
1732,0.155,-0.315
1733,0.135,-0.300
1734,0.130,-0.275
1735,0.100,-0.255
1736,0.105,-0.250
1737,0.085,-0.250
1738,0.055,-0.265
1739,0.040,-0.255
1740,0.025,-0.250
1741,0.015,-0.230
1742,0.000,-0.245
1743,-0.035,-0.260
1744,-0.065,-0.265
1745,-0.105,-0.265
1746,-0.125,-0.265
1747,-0.110,-0.260
1748,-0.130,-0.260
1749,-0.145,-0.270
1750,-0.150,-0.270
1751,-0.145,-0.265
1752,-0.150,-0.265
1753,-0.135,-0.250
1754,-0.115,-0.255
1755,-0.130,-0.265
1756,-0.155,-0.285
1757,-0.165,-0.265
1758,-0.160,-0.255
1759,-0.140,-0.235
1760,-0.130,-0.240
1761,-0.135,-0.235
1762,-0.150,-0.220
1763,-0.165,-0.185
1764,-0.130,-0.140
1765,-0.115,-0.120
1766,-0.115,-0.170
1767,-0.120,-0.235
1768,-0.120,-0.330
1769,-0.150,-0.475
1770,-0.160,-0.630
1771,-0.170,-0.805
1772,-0.110,-0.980
1773,-0.030,-1.130
1774,0.105,-1.215
1775,0.275,-1.210
1776,0.490,-1.145
1777,0.665,-1.035
1778,0.750,-0.915
1779,0.690,-0.770
1780,0.475,-0.640
1781,0.190,-0.495
1782,-0.030,-0.365
1783,-0.155,-0.240
1784,-0.205,-0.190
1785,-0.200,-0.185
1786,-0.180,-0.180
1787,-0.175,-0.175
1788,-0.140,-0.175
1789,-0.135,-0.160
1790,-0.120,-0.160
1791,-0.135,-0.170
1792,-0.160,-0.180
1793,-0.160,-0.180
1794,-0.170,-0.155
1795,-0.155,-0.145
1796,-0.145,-0.160
1797,-0.140,-0.165
1798,-0.150,-0.195
1799,-0.145,-0.195
1800,-0.150,-0.185
1801,-0.140,-0.170
1802,-0.125,-0.170
1803,-0.135,-0.175
1804,-0.145,-0.205
1805,-0.150,-0.195
1806,-0.145,-0.170
1807,-0.150,-0.165
1808,-0.150,-0.180
1809,-0.130,-0.180
1810,-0.140,-0.195
1811,-0.160,-0.185
1812,-0.150,-0.165
1813,-0.125,-0.155
1814,-0.115,-0.145
1815,-0.110,-0.170
1816,-0.130,-0.180
1817,-0.145,-0.170
1818,-0.145,-0.160
1819,-0.120,-0.155
1820,-0.105,-0.160
1821,-0.120,-0.175
1822,-0.120,-0.175
1823,-0.125,-0.185
1824,-0.120,-0.165
1825,-0.115,-0.165
1826,-0.095,-0.175
1827,-0.090,-0.175
1828,-0.105,-0.185
1829,-0.115,-0.175
1830,-0.100,-0.175
1831,-0.110,-0.165
1832,-0.090,-0.165
1833,-0.100,-0.170
1834,-0.100,-0.180
1835,-0.125,-0.185
1836,-0.105,-0.170
1837,-0.085,-0.160
1838,-0.080,-0.160
1839,-0.085,-0.160
1840,-0.105,-0.175
1841,-0.100,-0.165
1842,-0.100,-0.150
1843,-0.100,-0.140
1844,-0.090,-0.150
1845,-0.085,-0.165
1846,-0.100,-0.175
1847,-0.115,-0.165
1848,-0.095,-0.145
1849,-0.080,-0.140
1850,-0.075,-0.150
1851,-0.085,-0.160
1852,-0.080,-0.190
1853,-0.095,-0.180
1854,-0.090,-0.170
1855,-0.080,-0.155
1856,-0.060,-0.155
1857,-0.080,-0.160
1858,-0.085,-0.170
1859,-0.100,-0.165
1860,-0.100,-0.160
1861,-0.095,-0.160
1862,-0.070,-0.155
1863,-0.080,-0.170
1864,-0.080,-0.180
1865,-0.080,-0.190
1866,-0.085,-0.170
1867,-0.095,-0.165
1868,-0.085,-0.175
1869,-0.105,-0.180
1870,-0.125,-0.195
1871,-0.145,-0.205
1872,-0.155,-0.180
1873,-0.140,-0.180
1874,-0.120,-0.195
1875,-0.130,-0.190
1876,-0.155,-0.205
1877,-0.165,-0.200
1878,-0.160,-0.200
1879,-0.155,-0.185
1880,-0.150,-0.195
1881,-0.160,-0.205
1882,-0.155,-0.210
1883,-0.160,-0.205
1884,-0.160,-0.200
1885,-0.145,-0.195
1886,-0.150,-0.195
1887,-0.165,-0.225
1888,-0.180,-0.235
1889,-0.185,-0.220
1890,-0.180,-0.195
1891,-0.180,-0.195
1892,-0.170,-0.190
1893,-0.165,-0.210
1894,-0.170,-0.210
1895,-0.180,-0.205
1896,-0.175,-0.215
1897,-0.160,-0.200
1898,-0.155,-0.190
1899,-0.165,-0.205
1900,-0.175,-0.225
1901,-0.185,-0.215
1902,-0.190,-0.205
1903,-0.160,-0.210
1904,-0.160,-0.205
1905,-0.160,-0.210
1906,-0.180,-0.210
1907,-0.195,-0.210
1908,-0.195,-0.205
1909,-0.180,-0.200
1910,-0.165,-0.195
1911,-0.175,-0.225
1912,-0.185,-0.235
1913,-0.190,-0.245
1914,-0.200,-0.215
1915,-0.190,-0.200
1916,-0.175,-0.215
1917,-0.190,-0.215
1918,-0.185,-0.225
1919,-0.205,-0.230
1920,-0.200,-0.215
1921,-0.190,-0.210
1922,-0.165,-0.215
1923,-0.170,-0.225
1924,-0.185,-0.240
1925,-0.185,-0.225
1926,-0.185,-0.225
1927,-0.175,-0.220
1928,-0.180,-0.230
1929,-0.165,-0.230
1930,-0.175,-0.245
1931,-0.190,-0.230
1932,-0.185,-0.225
1933,-0.155,-0.210
1934,-0.160,-0.215
1935,-0.170,-0.225
1936,-0.190,-0.245
1937,-0.185,-0.240
1938,-0.180,-0.235
1939,-0.160,-0.200
1940,-0.140,-0.215
1941,-0.145,-0.225
1942,-0.160,-0.245
1943,-0.165,-0.240
1944,-0.180,-0.220
1945,-0.155,-0.220
1946,-0.150,-0.225
1947,-0.165,-0.225
1948,-0.165,-0.245
1949,-0.165,-0.245
1950,-0.175,-0.240
1951,-0.165,-0.225
1952,-0.145,-0.230
1953,-0.145,-0.250
1954,-0.155,-0.255
1955,-0.160,-0.250
1956,-0.165,-0.240
1957,-0.140,-0.225
1958,-0.135,-0.235
1959,-0.145,-0.240
1960,-0.150,-0.250
1961,-0.160,-0.240
1962,-0.155,-0.235
1963,-0.140,-0.230
1964,-0.130,-0.215
1965,-0.135,-0.230
1966,-0.150,-0.250
1967,-0.145,-0.240
1968,-0.155,-0.235
1969,-0.140,-0.215
1970,-0.115,-0.210
1971,-0.120,-0.235
1972,-0.130,-0.245
1973,-0.125,-0.235
1974,-0.130,-0.220
1975,-0.115,-0.215
1976,-0.120,-0.210
1977,-0.125,-0.230
1978,-0.125,-0.245
1979,-0.130,-0.225
1980,-0.120,-0.230
1981,-0.130,-0.220
1982,-0.115,-0.225
1983,-0.115,-0.235
1984,-0.125,-0.245
1985,-0.125,-0.240
1986,-0.125,-0.220
1987,-0.125,-0.225
1988,-0.110,-0.200
1989,-0.095,-0.225
1990,-0.125,-0.230
1991,-0.135,-0.230
1992,-0.125,-0.225
1993,-0.100,-0.215
1994,-0.085,-0.220
1995,-0.100,-0.240
1996,-0.110,-0.245
1997,-0.115,-0.245
1998,-0.120,-0.235
1999,-0.105,-0.205
2000,-0.080,-0.215
2001,-0.095,-0.230
2002,-0.110,-0.245
2003,-0.115,-0.235
2004,-0.115,-0.215
2005,-0.090,-0.195
2006,-0.085,-0.200
2007,-0.095,-0.225
2008,-0.100,-0.230
2009,-0.110,-0.225
2010,-0.090,-0.220
2011,-0.080,-0.185
2012,-0.070,-0.185
2013,-0.065,-0.170
2014,-0.070,-0.175
2015,-0.055,-0.180
2016,-0.050,-0.160
2017,-0.025,-0.150
2018,0.000,-0.165
2019,0.010,-0.180
2020,0.005,-0.185
2021,0.015,-0.200
2022,0.045,-0.190
2023,0.095,-0.220
2024,0.135,-0.245
2025,0.140,-0.270
2026,0.150,-0.280
2027,0.145,-0.280
2028,0.150,-0.260
2029,0.135,-0.245
2030,0.130,-0.245
2031,0.115,-0.260
2032,0.095,-0.255
2033,0.075,-0.240
2034,0.065,-0.220
2035,0.075,-0.210
2036,0.070,-0.205
2037,0.055,-0.230
2038,0.000,-0.235
2039,-0.045,-0.220
2040,-0.065,-0.225
2041,-0.095,-0.225
2042,-0.105,-0.230
2043,-0.120,-0.255
2044,-0.130,-0.245
2045,-0.140,-0.240
2046,-0.150,-0.225
2047,-0.125,-0.220
2048,-0.110,-0.225
2049,-0.115,-0.225
2050,-0.130,-0.245
2051,-0.135,-0.230
2052,-0.135,-0.220
2053,-0.115,-0.225
2054,-0.105,-0.215
2055,-0.110,-0.225
2056,-0.100,-0.235
2057,-0.100,-0.210
2058,-0.100,-0.165
2059,-0.090,-0.120
2060,-0.070,-0.105
2061,-0.080,-0.140
2062,-0.095,-0.220
2063,-0.125,-0.310
2064,-0.145,-0.450
2065,-0.150,-0.610
2066,-0.130,-0.800
2067,-0.070,-0.980
2068,0.050,-1.115
2069,0.215,-1.170
2070,0.440,-1.120
2071,0.665,-1.000
2072,0.800,-0.840
2073,0.770,-0.695
2074,0.550,-0.535
2075,0.215,-0.380
2076,-0.030,-0.230
2077,-0.130,-0.160
2078,-0.145,-0.115
2079,-0.115,-0.115
2080,-0.100,-0.120
2081,-0.095,-0.120
2082,-0.080,-0.105
2083,-0.055,-0.100
2084,-0.060,-0.110
2085,-0.080,-0.130
2086,-0.095,-0.145
2087,-0.085,-0.135
2088,-0.090,-0.135
2089,-0.080,-0.120
2090,-0.075,-0.110
2091,-0.065,-0.130
2092,-0.075,-0.145
2093,-0.080,-0.140
2094,-0.070,-0.125
2095,-0.060,-0.130
2096,-0.060,-0.140
2097,-0.055,-0.130
2098,-0.060,-0.150
2099,-0.065,-0.155
2100,-0.055,-0.135
2101,-0.045,-0.130
2102,-0.050,-0.120
2103,-0.055,-0.140
2104,-0.070,-0.155
2105,-0.080,-0.155
2106,-0.050,-0.135
2107,-0.050,-0.115
2108,-0.020,-0.120
2109,-0.035,-0.135
2110,-0.050,-0.145
2111,-0.040,-0.155
2112,-0.045,-0.125
2113,-0.030,-0.125
2114,-0.020,-0.125
2115,-0.015,-0.125
2116,-0.035,-0.145
2117,-0.040,-0.150
2118,-0.030,-0.145
2119,-0.020,-0.130
2120,-0.015,-0.140
2121,-0.025,-0.135
2122,-0.035,-0.145
2123,-0.025,-0.150
2124,-0.025,-0.135
2125,-0.015,-0.120
2126,-0.005,-0.120
2127,-0.015,-0.135
2128,-0.030,-0.150
2129,-0.035,-0.140
2130,-0.035,-0.140
2131,-0.010,-0.115
2132,-0.005,-0.110
2133,-0.005,-0.145
2134,-0.020,-0.140
2135,-0.020,-0.160
2136,-0.020,-0.145
2137,0.000,-0.130
2138,0.015,-0.110
2139,0.020,-0.145
2140,0.005,-0.150
2141,0.000,-0.155
2142,0.000,-0.145
2143,0.015,-0.135
2144,0.005,-0.140
2145,0.015,-0.150
2146,0.010,-0.145
2147,-0.005,-0.160
2148,0.010,-0.135
2149,0.015,-0.130
2150,0.035,-0.140
2151,0.010,-0.150
2152,0.005,-0.170
2153,0.000,-0.165
2154,0.000,-0.145
2155,0.000,-0.145
2156,0.010,-0.140
2157,0.000,-0.145
2158,-0.015,-0.170
2159,-0.035,-0.175
2160,-0.030,-0.150
2161,-0.030,-0.145
2162,-0.025,-0.160
2163,-0.045,-0.170
2164,-0.055,-0.185
2165,-0.075,-0.180
2166,-0.060,-0.175
2167,-0.055,-0.160
2168,-0.035,-0.165
2169,-0.055,-0.170
2170,-0.080,-0.185
2171,-0.100,-0.170
2172,-0.070,-0.165
2173,-0.045,-0.155
2174,-0.050,-0.155
2175,-0.050,-0.170
2176,-0.070,-0.180
2177,-0.075,-0.180
2178,-0.070,-0.170
2179,-0.050,-0.145
2180,-0.045,-0.155
2181,-0.045,-0.170
2182,-0.055,-0.175
2183,-0.065,-0.180
2184,-0.075,-0.175
2185,-0.060,-0.175
2186,-0.035,-0.175
2187,-0.050,-0.185
2188,-0.075,-0.205
2189,-0.085,-0.205
2190,-0.090,-0.175
2191,-0.055,-0.160
2192,-0.055,-0.175
2193,-0.065,-0.195
2194,-0.065,-0.210
2195,-0.090,-0.200
2196,-0.080,-0.170
2197,-0.065,-0.180
2198,-0.060,-0.180
2199,-0.070,-0.195
2200,-0.095,-0.200
2201,-0.095,-0.205
2202,-0.090,-0.190
2203,-0.080,-0.175
2204,-0.080,-0.195
2205,-0.080,-0.205
2206,-0.095,-0.220
2207,-0.100,-0.205
2208,-0.090,-0.205
2209,-0.070,-0.180
2210,-0.070,-0.190
2211,-0.075,-0.210
2212,-0.090,-0.215
2213,-0.100,-0.220
2214,-0.090,-0.195
2215,-0.080,-0.195
2216,-0.060,-0.200
2217,-0.060,-0.215
2218,-0.085,-0.235
2219,-0.095,-0.230
2220,-0.085,-0.215
2221,-0.065,-0.205
2222,-0.060,-0.200
2223,-0.065,-0.210
2224,-0.090,-0.225
2225,-0.090,-0.215
2226,-0.080,-0.215
2227,-0.070,-0.200
2228,-0.060,-0.205
2229,-0.060,-0.230
2230,-0.065,-0.230
2231,-0.070,-0.225
2232,-0.065,-0.210
2233,-0.055,-0.195
2234,-0.045,-0.210
2235,-0.055,-0.230
2236,-0.070,-0.240
2237,-0.075,-0.225
2238,-0.055,-0.225
2239,-0.040,-0.215
2240,-0.040,-0.215
2241,-0.045,-0.225
2242,-0.055,-0.230
2243,-0.065,-0.225
2244,-0.055,-0.210
2245,-0.050,-0.205
2246,-0.045,-0.210
2247,-0.040,-0.210
2248,-0.055,-0.245
2249,-0.065,-0.235
2250,-0.055,-0.225
2251,-0.020,-0.215
2252,-0.015,-0.220
2253,-0.030,-0.235
2254,-0.045,-0.245
2255,-0.045,-0.240
2256,-0.040,-0.225
2257,-0.045,-0.205
2258,-0.025,-0.225
2259,-0.035,-0.230
2260,-0.035,-0.250
2261,-0.055,-0.250
2262,-0.055,-0.225
2263,-0.050,-0.225
2264,-0.020,-0.225
2265,-0.030,-0.230
2266,-0.040,-0.245
2267,-0.060,-0.250
2268,-0.045,-0.220
2269,-0.035,-0.220
2270,-0.015,-0.195
2271,-0.010,-0.225
2272,-0.020,-0.220
2273,-0.025,-0.205
2274,-0.025,-0.190
2275,0.000,-0.170
2276,0.025,-0.180
2277,0.020,-0.175
2278,0.020,-0.200
2279,0.025,-0.185
2280,0.035,-0.175
2281,0.035,-0.150
2282,0.065,-0.135
2283,0.065,-0.140
2284,0.080,-0.160
2285,0.110,-0.180
2286,0.160,-0.200
2287,0.225,-0.215
2288,0.250,-0.225
2289,0.255,-0.260
2290,0.250,-0.270
2291,0.230,-0.270
2292,0.240,-0.265
2293,0.255,-0.250
2294,0.230,-0.250
2295,0.195,-0.250
2296,0.180,-0.250
2297,0.155,-0.230
2298,0.130,-0.230
2299,0.130,-0.225
2300,0.100,-0.225
2301,0.085,-0.255
2302,0.005,-0.260
2303,-0.030,-0.250
2304,-0.045,-0.260
2305,-0.035,-0.250
2306,-0.050,-0.250
2307,-0.060,-0.260
2308,-0.080,-0.275
2309,-0.090,-0.265
2310,-0.100,-0.265
2311,-0.085,-0.255
2312,-0.085,-0.260
2313,-0.090,-0.260
2314,-0.100,-0.275
2315,-0.120,-0.245
2316,-0.095,-0.235
2317,-0.075,-0.240
2318,-0.060,-0.225
2319,-0.065,-0.235
2320,-0.075,-0.235
2321,-0.080,-0.205
2322,-0.070,-0.140
2323,-0.050,-0.105
2324,-0.045,-0.105
2325,-0.050,-0.165
2326,-0.075,-0.285
2327,-0.100,-0.465
2328,-0.105,-0.680
2329,-0.080,-0.885
2330,0.025,-1.105
2331,0.180,-1.240
2332,0.365,-1.295
2333,0.540,-1.265
2334,0.715,-1.145
2335,0.860,-1.010
2336,0.890,-0.865
2337,0.795,-0.715
2338,0.535,-0.565
2339,0.190,-0.385
2340,-0.060,-0.245
2341,-0.170,-0.165
2342,-0.155,-0.155
2343,-0.100,-0.155
2344,-0.080,-0.175
2345,-0.085,-0.170
2346,-0.095,-0.160
2347,-0.100,-0.140
2348,-0.090,-0.145
2349,-0.100,-0.160
2350,-0.100,-0.175
2351,-0.105,-0.170
2352,-0.090,-0.155
2353,-0.075,-0.155
2354,-0.085,-0.155
2355,-0.070,-0.160
2356,-0.085,-0.160
2357,-0.085,-0.165
2358,-0.080,-0.150
2359,-0.080,-0.150
2360,-0.075,-0.155
2361,-0.080,-0.170
2362,-0.090,-0.180
2363,-0.090,-0.175
2364,-0.080,-0.165
2365,-0.070,-0.145
2366,-0.060,-0.145
2367,-0.065,-0.160
2368,-0.080,-0.175
2369,-0.075,-0.185
2370,-0.080,-0.170
2371,-0.065,-0.155
2372,-0.055,-0.155
2373,-0.060,-0.160
2374,-0.065,-0.180
2375,-0.080,-0.180
2376,-0.080,-0.165
2377,-0.055,-0.150
2378,-0.040,-0.150
2379,-0.045,-0.155
2380,-0.050,-0.165
2381,-0.065,-0.150
2382,-0.065,-0.150
2383,-0.045,-0.140
2384,-0.030,-0.150
2385,-0.060,-0.160
2386,-0.050,-0.155
2387,-0.070,-0.165
2388,-0.050,-0.135
2389,-0.035,-0.135
2390,-0.030,-0.135
2391,-0.035,-0.160
2392,-0.045,-0.150
2393,-0.050,-0.160
2394,-0.040,-0.130
2395,-0.030,-0.120
2396,-0.010,-0.120
2397,-0.025,-0.135
2398,-0.040,-0.145
2399,-0.045,-0.145
2400,-0.025,-0.125
2401,-0.015,-0.110
2402,0.000,-0.125
2403,-0.015,-0.130
2404,-0.015,-0.155
2405,-0.020,-0.140
2406,-0.015,-0.130
2407,-0.010,-0.115
2408,-0.005,-0.120
2409,-0.005,-0.135
2410,-0.015,-0.140
2411,-0.035,-0.130
2412,-0.040,-0.120
2413,-0.025,-0.120
2414,-0.020,-0.115
2415,-0.025,-0.130
2416,-0.040,-0.155
2417,-0.060,-0.155
2418,-0.065,-0.145
2419,-0.040,-0.130
2420,-0.055,-0.140
2421,-0.070,-0.155
2422,-0.090,-0.165
2423,-0.105,-0.170
2424,-0.100,-0.165
2425,-0.090,-0.160
2426,-0.070,-0.170
2427,-0.090,-0.170
2428,-0.115,-0.180
2429,-0.125,-0.190
2430,-0.115,-0.170
2431,-0.115,-0.165
2432,-0.105,-0.180
2433,-0.120,-0.190
2434,-0.130,-0.195
2435,-0.135,-0.190
2436,-0.145,-0.175
2437,-0.145,-0.170
2438,-0.135,-0.180
2439,-0.150,-0.185
2440,-0.165,-0.220
2441,-0.170,-0.210
2442,-0.170,-0.190
2443,-0.155,-0.195
2444,-0.155,-0.180
2445,-0.155,-0.195
2446,-0.165,-0.205
2447,-0.170,-0.200
2448,-0.170,-0.200
2449,-0.165,-0.190
2450,-0.150,-0.200
2451,-0.170,-0.215
2452,-0.175,-0.215
2453,-0.185,-0.210
2454,-0.160,-0.205
2455,-0.165,-0.215
2456,-0.150,-0.220
2457,-0.165,-0.210
2458,-0.170,-0.240
2459,-0.180,-0.245
2460,-0.175,-0.220
2461,-0.175,-0.205
2462,-0.165,-0.210
2463,-0.175,-0.230
2464,-0.195,-0.240
2465,-0.200,-0.240
2466,-0.190,-0.225
2467,-0.180,-0.215
2468,-0.180,-0.225
2469,-0.175,-0.215
2470,-0.175,-0.230
2471,-0.180,-0.225
2472,-0.180,-0.220
2473,-0.175,-0.210
2474,-0.155,-0.215
2475,-0.175,-0.240
2476,-0.185,-0.240
2477,-0.185,-0.235
2478,-0.190,-0.220
2479,-0.190,-0.220
2480,-0.175,-0.225
2481,-0.170,-0.240
2482,-0.180,-0.235
2483,-0.185,-0.255
2484,-0.185,-0.225
2485,-0.175,-0.225
2486,-0.165,-0.220
2487,-0.170,-0.230
2488,-0.180,-0.255
2489,-0.195,-0.245
2490,-0.180,-0.235
2491,-0.165,-0.220
2492,-0.170,-0.225
2493,-0.170,-0.240
2494,-0.165,-0.255
2495,-0.180,-0.255
2496,-0.170,-0.225
2497,-0.165,-0.235
2498,-0.150,-0.230
2499,-0.175,-0.230
2500,-0.165,-0.250
2501,-0.180,-0.235
2502,-0.170,-0.230
2503,-0.155,-0.225
2504,-0.155,-0.240
2505,-0.170,-0.250
2506,-0.165,-0.260
2507,-0.175,-0.255
2508,-0.170,-0.245
2509,-0.150,-0.220
2510,-0.160,-0.225
2511,-0.165,-0.245
2512,-0.180,-0.265
2513,-0.175,-0.255
2514,-0.170,-0.245
2515,-0.155,-0.225
2516,-0.150,-0.235
2517,-0.160,-0.245
2518,-0.180,-0.260
2519,-0.180,-0.250
2520,-0.175,-0.265
2521,-0.165,-0.240
2522,-0.160,-0.235
2523,-0.160,-0.255
2524,-0.180,-0.255
2525,-0.185,-0.260
2526,-0.190,-0.240
2527,-0.175,-0.235
2528,-0.170,-0.250
2529,-0.160,-0.260
2530,-0.175,-0.265
2531,-0.190,-0.260
2532,-0.200,-0.240
2533,-0.180,-0.235
2534,-0.175,-0.250
2535,-0.175,-0.250
2536,-0.190,-0.260
2537,-0.210,-0.270
2538,-0.205,-0.270
2539,-0.195,-0.245
2540,-0.185,-0.245
2541,-0.190,-0.260
2542,-0.205,-0.260
2543,-0.210,-0.255
2544,-0.205,-0.240
2545,-0.200,-0.240
2546,-0.195,-0.235
2547,-0.205,-0.255
2548,-0.205,-0.270
2549,-0.210,-0.270
2550,-0.205,-0.255
2551,-0.200,-0.240
2552,-0.185,-0.240
2553,-0.220,-0.255
2554,-0.230,-0.270
2555,-0.230,-0.270
2556,-0.210,-0.255
2557,-0.215,-0.240
2558,-0.200,-0.245
2559,-0.215,-0.255
2560,-0.225,-0.280
2561,-0.225,-0.265
2562,-0.225,-0.245
2563,-0.210,-0.245
2564,-0.220,-0.245
2565,-0.235,-0.245
2566,-0.250,-0.270
2567,-0.245,-0.260
2568,-0.235,-0.265
2569,-0.225,-0.230
2570,-0.220,-0.235
2571,-0.235,-0.245
2572,-0.230,-0.260
2573,-0.240,-0.255
2574,-0.220,-0.255
2575,-0.220,-0.245
2576,-0.215,-0.255
2577,-0.230,-0.260
2578,-0.240,-0.260
2579,-0.245,-0.245
2580,-0.225,-0.245
2581,-0.215,-0.215
2582,-0.220,-0.225
2583,-0.215,-0.255
2584,-0.230,-0.265
2585,-0.215,-0.260
2586,-0.220,-0.240
2587,-0.200,-0.235
2588,-0.195,-0.240
2589,-0.205,-0.245
2590,-0.215,-0.260
2591,-0.230,-0.255
2592,-0.215,-0.270
2593,-0.175,-0.275
2594,-0.165,-0.280
2595,-0.160,-0.310
2596,-0.170,-0.325
2597,-0.165,-0.340
2598,-0.155,-0.330
2599,-0.135,-0.320
2600,-0.115,-0.335
2601,-0.105,-0.340
2602,-0.120,-0.345
2603,-0.140,-0.335
2604,-0.180,-0.300
2605,-0.160,-0.280
2606,-0.165,-0.275
2607,-0.190,-0.275
2608,-0.220,-0.260
2609,-0.215,-0.240
2610,-0.215,-0.225
2611,-0.200,-0.215
2612,-0.200,-0.230
2613,-0.235,-0.245
2614,-0.260,-0.250
2615,-0.270,-0.260
2616,-0.295,-0.260
2617,-0.290,-0.245
2618,-0.270,-0.240
2619,-0.270,-0.260
2620,-0.290,-0.265
2621,-0.305,-0.275
2622,-0.300,-0.250
2623,-0.300,-0.250
2624,-0.270,-0.250
2625,-0.270,-0.255
2626,-0.280,-0.270
2627,-0.285,-0.260
2628,-0.290,-0.245
2629,-0.280,-0.220
2630,-0.265,-0.185
2631,-0.255,-0.140
2632,-0.275,-0.120
2633,-0.275,-0.120
2634,-0.265,-0.140
2635,-0.250,-0.225
2636,-0.270,-0.365
2637,-0.290,-0.570
2638,-0.335,-0.805
2639,-0.310,-1.010
2640,-0.200,-1.135
2641,-0.045,-1.195
2642,0.155,-1.165
2643,0.315,-1.090
2644,0.410,-1.000
2645,0.415,-0.840
2646,0.310,-0.670
2647,0.100,-0.490
2648,-0.155,-0.375
2649,-0.345,-0.260
2650,-0.420,-0.225
2651,-0.415,-0.170
2652,-0.360,-0.150
2653,-0.305,-0.145
2654,-0.260,-0.140
2655,-0.260,-0.145
2656,-0.270,-0.160
2657,-0.300,-0.160
2658,-0.295,-0.155
2659,-0.290,-0.145
2660,-0.295,-0.145
2661,-0.305,-0.160
2662,-0.310,-0.180
2663,-0.315,-0.185
2664,-0.280,-0.170
2665,-0.275,-0.170
2666,-0.265,-0.165
2667,-0.280,-0.170
2668,-0.290,-0.180
2669,-0.300,-0.180
2670,-0.300,-0.175
2671,-0.265,-0.165
2672,-0.265,-0.160
2673,-0.275,-0.175
2674,-0.290,-0.190
2675,-0.305,-0.180
2676,-0.280,-0.170
2677,-0.280,-0.160
2678,-0.270,-0.160
2679,-0.270,-0.185
2680,-0.275,-0.195
2681,-0.285,-0.195
2682,-0.275,-0.165
2683,-0.260,-0.155
2684,-0.245,-0.170
2685,-0.265,-0.185
2686,-0.295,-0.200
2687,-0.300,-0.190
2688,-0.285,-0.190
2689,-0.265,-0.175
2690,-0.255,-0.170
2691,-0.265,-0.185
2692,-0.290,-0.200
2693,-0.310,-0.190
2694,-0.300,-0.185
2695,-0.295,-0.175
2696,-0.270,-0.195
2697,-0.260,-0.200
2698,-0.270,-0.205
2699,-0.285,-0.210
2700,-0.270,-0.205
2701,-0.270,-0.180
2702,-0.255,-0.190
2703,-0.260,-0.200
2704,-0.280,-0.210
2705,-0.290,-0.205
2706,-0.290,-0.185
2707,-0.270,-0.185
2708,-0.260,-0.190
2709,-0.275,-0.195
2710,-0.295,-0.215
2711,-0.290,-0.195
2712,-0.280,-0.185
2713,-0.270,-0.165
2714,-0.255,-0.175
2715,-0.260,-0.190
2716,-0.280,-0.210
2717,-0.300,-0.195
2718,-0.305,-0.195
2719,-0.295,-0.180
2720,-0.275,-0.185
2721,-0.290,-0.205
2722,-0.295,-0.210
2723,-0.305,-0.210
2724,-0.295,-0.205
2725,-0.290,-0.190
2726,-0.280,-0.205
2727,-0.295,-0.205
2728,-0.305,-0.225
2729,-0.310,-0.210
2730,-0.310,-0.200
2731,-0.305,-0.200
2732,-0.315,-0.200
2733,-0.355,-0.225
2734,-0.365,-0.225
2735,-0.380,-0.225
2736,-0.390,-0.220
2737,-0.385,-0.215
2738,-0.385,-0.225
2739,-0.375,-0.225
2740,-0.385,-0.235
2741,-0.400,-0.220
2742,-0.390,-0.205
2743,-0.390,-0.205
2744,-0.385,-0.200
2745,-0.395,-0.215
2746,-0.415,-0.235
2747,-0.420,-0.240
2748,-0.440,-0.230
2749,-0.405,-0.210
2750,-0.370,-0.220
2751,-0.380,-0.230
2752,-0.410,-0.235
2753,-0.405,-0.245
2754,-0.410,-0.235
2755,-0.405,-0.215
2756,-0.395,-0.230
2757,-0.400,-0.235
2758,-0.435,-0.240
2759,-0.435,-0.235
2760,-0.430,-0.225
2761,-0.415,-0.210
2762,-0.395,-0.230
2763,-0.395,-0.235
2764,-0.435,-0.250
2765,-0.430,-0.240
2766,-0.435,-0.240
2767,-0.430,-0.220
2768,-0.435,-0.235
2769,-0.420,-0.245
2770,-0.430,-0.260
2771,-0.440,-0.250
2772,-0.435,-0.230
2773,-0.425,-0.225
2774,-0.415,-0.225
2775,-0.415,-0.240
2776,-0.425,-0.245
2777,-0.440,-0.245
2778,-0.435,-0.245
2779,-0.425,-0.240
2780,-0.445,-0.255
2781,-0.430,-0.250
2782,-0.445,-0.260
2783,-0.445,-0.270
2784,-0.440,-0.250
2785,-0.435,-0.235
2786,-0.430,-0.240
2787,-0.430,-0.260
2788,-0.435,-0.265
2789,-0.450,-0.255
2790,-0.430,-0.245
2791,-0.425,-0.240
2792,-0.405,-0.245
2793,-0.420,-0.260
2794,-0.435,-0.275
2795,-0.430,-0.250
2796,-0.430,-0.245
2797,-0.425,-0.250
2798,-0.415,-0.250
2799,-0.430,-0.260
2800,-0.435,-0.265
2801,-0.440,-0.270
2802,-0.445,-0.260
2803,-0.410,-0.260
2804,-0.410,-0.250
2805,-0.410,-0.255
2806,-0.430,-0.270
2807,-0.435,-0.270
2808,-0.430,-0.250
2809,-0.415,-0.250
2810,-0.395,-0.250
2811,-0.400,-0.275
2812,-0.410,-0.270
2813,-0.430,-0.265
2814,-0.420,-0.255
2815,-0.410,-0.250
2816,-0.400,-0.250
2817,-0.415,-0.260
2818,-0.425,-0.265
2819,-0.430,-0.270
2820,-0.425,-0.250
2821,-0.420,-0.245
2822,-0.400,-0.245
2823,-0.410,-0.255
2824,-0.405,-0.255
2825,-0.420,-0.270
2826,-0.420,-0.250
2827,-0.405,-0.250
2828,-0.405,-0.245
2829,-0.405,-0.250
2830,-0.420,-0.265
2831,-0.420,-0.270
2832,-0.415,-0.250
2833,-0.405,-0.240
2834,-0.400,-0.245
2835,-0.405,-0.260
2836,-0.400,-0.270
2837,-0.410,-0.250
2838,-0.420,-0.260
2839,-0.400,-0.240
2840,-0.385,-0.250
2841,-0.385,-0.260
2842,-0.400,-0.255
2843,-0.405,-0.270
2844,-0.415,-0.260
2845,-0.390,-0.245
2846,-0.390,-0.240
2847,-0.395,-0.260
2848,-0.400,-0.265
2849,-0.420,-0.275
2850,-0.395,-0.255
2851,-0.390,-0.250
2852,-0.375,-0.255
2853,-0.390,-0.260
2854,-0.405,-0.270
2855,-0.420,-0.260
2856,-0.415,-0.255
2857,-0.395,-0.250
2858,-0.385,-0.240
2859,-0.395,-0.255
2860,-0.400,-0.260
2861,-0.410,-0.265
2862,-0.425,-0.250
2863,-0.395,-0.240
2864,-0.385,-0.235
2865,-0.400,-0.245
2866,-0.410,-0.265
2867,-0.415,-0.265
2868,-0.400,-0.235
2869,-0.390,-0.230
2870,-0.380,-0.220
2871,-0.385,-0.235
2872,-0.395,-0.240
2873,-0.405,-0.240
2874,-0.395,-0.225
2875,-0.375,-0.215
2876,-0.365,-0.225
2877,-0.370,-0.250
2878,-0.385,-0.260
2879,-0.390,-0.245
2880,-0.385,-0.230
2881,-0.370,-0.220
2882,-0.360,-0.225
2883,-0.370,-0.240
2884,-0.360,-0.260
2885,-0.375,-0.260
2886,-0.360,-0.260
2887,-0.340,-0.265
2888,-0.320,-0.285
2889,-0.320,-0.305
2890,-0.325,-0.335
2891,-0.320,-0.340
2892,-0.310,-0.310
2893,-0.280,-0.320
2894,-0.260,-0.320
2895,-0.250,-0.345
2896,-0.260,-0.330
2897,-0.265,-0.305
2898,-0.285,-0.295
2899,-0.290,-0.270
2900,-0.290,-0.275
2901,-0.305,-0.265
2902,-0.325,-0.260
2903,-0.340,-0.245
2904,-0.335,-0.225
2905,-0.310,-0.205
2906,-0.315,-0.230
2907,-0.325,-0.240
2908,-0.355,-0.250
2909,-0.385,-0.255
2910,-0.400,-0.235
2911,-0.395,-0.235
2912,-0.385,-0.240
2913,-0.400,-0.260
2914,-0.405,-0.260
2915,-0.410,-0.265
2916,-0.400,-0.240
2917,-0.390,-0.235
2918,-0.390,-0.235
2919,-0.390,-0.245
2920,-0.410,-0.250
2921,-0.395,-0.250
2922,-0.380,-0.230
2923,-0.365,-0.200
2924,-0.355,-0.220
2925,-0.360,-0.200
2926,-0.375,-0.165
2927,-0.360,-0.135
2928,-0.365,-0.120
2929,-0.335,-0.130
2930,-0.335,-0.220
2931,-0.355,-0.355
2932,-0.385,-0.555
2933,-0.400,-0.765
2934,-0.340,-0.940
2935,-0.235,-1.065
2936,-0.075,-1.135
2937,0.085,-1.155
2938,0.220,-1.115
2939,0.350,-0.995
2940,0.395,-0.840
2941,0.325,-0.685
2942,0.145,-0.545
2943,-0.095,-0.410
2944,-0.295,-0.290
2945,-0.400,-0.195
2946,-0.430,-0.120
2947,-0.400,-0.100
2948,-0.350,-0.100
2949,-0.335,-0.115
2950,-0.340,-0.135
2951,-0.350,-0.135
2952,-0.345,-0.120
2953,-0.345,-0.120
2954,-0.360,-0.115
2955,-0.355,-0.130
2956,-0.345,-0.130
2957,-0.365,-0.135
2958,-0.350,-0.135
2959,-0.350,-0.125
2960,-0.330,-0.115
2961,-0.335,-0.130
2962,-0.350,-0.145
2963,-0.355,-0.135
2964,-0.360,-0.125
2965,-0.340,-0.115
2966,-0.335,-0.125
2967,-0.335,-0.135
2968,-0.340,-0.145
2969,-0.345,-0.150
2970,-0.345,-0.130
2971,-0.335,-0.120
2972,-0.325,-0.120
2973,-0.330,-0.140
2974,-0.345,-0.150
2975,-0.340,-0.150
2976,-0.320,-0.135
2977,-0.310,-0.110
2978,-0.300,-0.120
2979,-0.305,-0.120
2980,-0.310,-0.145
2981,-0.310,-0.145
2982,-0.300,-0.130
2983,-0.300,-0.125
2984,-0.280,-0.130
2985,-0.290,-0.140
2986,-0.300,-0.145
2987,-0.305,-0.135
2988,-0.305,-0.145
2989,-0.300,-0.115
2990,-0.290,-0.125
2991,-0.285,-0.130
2992,-0.305,-0.150
2993,-0.310,-0.145
2994,-0.295,-0.140
2995,-0.285,-0.125
2996,-0.290,-0.135
2997,-0.295,-0.140
2998,-0.300,-0.140
2999,-0.305,-0.145
3000,-0.295,-0.125
3001,-0.295,-0.110
3002,-0.280,-0.125
3003,-0.275,-0.135
3004,-0.300,-0.135
3005,-0.300,-0.150
3006,-0.295,-0.135
3007,-0.275,-0.130
3008,-0.275,-0.130
3009,-0.280,-0.130
3010,-0.275,-0.145
3011,-0.295,-0.130
3012,-0.295,-0.125
3013,-0.290,-0.115
3014,-0.270,-0.125
3015,-0.280,-0.135
3016,-0.285,-0.160
3017,-0.300,-0.145
3018,-0.285,-0.130
3019,-0.285,-0.125
3020,-0.275,-0.130
3021,-0.280,-0.150
3022,-0.305,-0.160
3023,-0.300,-0.155
3024,-0.315,-0.155
3025,-0.305,-0.135
3026,-0.300,-0.140
3027,-0.310,-0.165
3028,-0.345,-0.165
3029,-0.340,-0.170
3030,-0.340,-0.165
3031,-0.340,-0.155
3032,-0.325,-0.160
3033,-0.325,-0.165
3034,-0.345,-0.190
3035,-0.350,-0.175
3036,-0.350,-0.155
3037,-0.345,-0.160
3038,-0.345,-0.160
3039,-0.330,-0.175
3040,-0.345,-0.175
3041,-0.365,-0.170
3042,-0.345,-0.175
3043,-0.340,-0.155
3044,-0.320,-0.165
3045,-0.325,-0.175
3046,-0.340,-0.180
3047,-0.345,-0.180
3048,-0.355,-0.165
3049,-0.330,-0.160
3050,-0.320,-0.165
3051,-0.320,-0.175
3052,-0.340,-0.185
3053,-0.340,-0.185
3054,-0.345,-0.175
3055,-0.320,-0.160
3056,-0.320,-0.160
3057,-0.320,-0.185
3058,-0.335,-0.180
3059,-0.345,-0.200
3060,-0.340,-0.185
3061,-0.340,-0.160
3062,-0.315,-0.170
3063,-0.320,-0.185
3064,-0.340,-0.195
3065,-0.345,-0.180
3066,-0.335,-0.175
3067,-0.310,-0.170
3068,-0.315,-0.170
3069,-0.315,-0.180
3070,-0.325,-0.195
3071,-0.330,-0.180
3072,-0.325,-0.170
3073,-0.315,-0.160
3074,-0.295,-0.175
3075,-0.310,-0.175
3076,-0.320,-0.200
3077,-0.320,-0.175
3078,-0.315,-0.180
3079,-0.315,-0.175
3080,-0.290,-0.175
3081,-0.305,-0.185
3082,-0.315,-0.200
3083,-0.330,-0.200
3084,-0.315,-0.175
3085,-0.305,-0.160
3086,-0.310,-0.170
3087,-0.275,-0.170
3088,-0.320,-0.190
3089,-0.290,-0.195
3090,-0.295,-0.180
3091,-0.285,-0.185
3092,-0.270,-0.180
3093,-0.295,-0.195
3094,-0.290,-0.195
3095,-0.300,-0.190
3096,-0.285,-0.165
3097,-0.280,-0.170
3098,-0.280,-0.175
3099,-0.275,-0.190
3100,-0.280,-0.190
3101,-0.290,-0.195
3102,-0.285,-0.175
3103,-0.265,-0.165
3104,-0.250,-0.175
3105,-0.250,-0.180
3106,-0.265,-0.200
3107,-0.275,-0.195
3108,-0.270,-0.190
3109,-0.260,-0.185
3110,-0.250,-0.175
3111,-0.260,-0.180
3112,-0.275,-0.200
3113,-0.275,-0.195
3114,-0.280,-0.180
3115,-0.255,-0.175
3116,-0.250,-0.190
3117,-0.255,-0.190
3118,-0.265,-0.200
3119,-0.275,-0.200
3120,-0.265,-0.180
3121,-0.255,-0.160
3122,-0.240,-0.170
3123,-0.240,-0.185
3124,-0.245,-0.200
3125,-0.255,-0.195
3126,-0.245,-0.175
3127,-0.230,-0.150
3128,-0.225,-0.150
3129,-0.210,-0.140
3130,-0.205,-0.160
3131,-0.210,-0.145
3132,-0.200,-0.120
3133,-0.175,-0.110
3134,-0.160,-0.105
3135,-0.145,-0.110
3136,-0.165,-0.120
3137,-0.145,-0.120
3138,-0.140,-0.100
3139,-0.120,-0.110
3140,-0.095,-0.140
3141,-0.060,-0.190
3142,-0.030,-0.235
3143,-0.020,-0.245
3144,-0.025,-0.230
3145,-0.010,-0.220
3146,0.005,-0.225
3147,-0.005,-0.245
3148,-0.025,-0.235
3149,-0.055,-0.220
3150,-0.070,-0.195
3151,-0.070,-0.170
3152,-0.080,-0.165
3153,-0.080,-0.165
3154,-0.105,-0.185
3155,-0.115,-0.180
3156,-0.130,-0.185
3157,-0.160,-0.175
3158,-0.170,-0.190
3159,-0.200,-0.205
3160,-0.235,-0.220
3161,-0.250,-0.220
3162,-0.255,-0.205
3163,-0.250,-0.190
3164,-0.255,-0.190
3165,-0.255,-0.195
3166,-0.250,-0.210
3167,-0.265,-0.215
3168,-0.260,-0.195
3169,-0.240,-0.180
3170,-0.225,-0.185
3171,-0.245,-0.200
3172,-0.235,-0.205
3173,-0.235,-0.205
3174,-0.230,-0.185
3175,-0.210,-0.175
3176,-0.205,-0.160
3177,-0.205,-0.140
3178,-0.205,-0.100
3179,-0.215,-0.055
3180,-0.195,-0.055
3181,-0.185,-0.090
3182,-0.195,-0.205
3183,-0.215,-0.360
3184,-0.240,-0.580
3185,-0.245,-0.800
3186,-0.170,-1.000
3187,-0.015,-1.135
3188,0.170,-1.195
3189,0.370,-1.160
3190,0.525,-1.050
3191,0.620,-0.900
3192,0.620,-0.750
3193,0.480,-0.605
3194,0.250,-0.470
3195,-0.015,-0.340
3196,-0.195,-0.245
3197,-0.280,-0.165
3198,-0.280,-0.105
3199,-0.245,-0.080
3200,-0.215,-0.065
3201,-0.200,-0.080
3202,-0.195,-0.095
3203,-0.195,-0.095
3204,-0.190,-0.085
3205,-0.185,-0.070
3206,-0.190,-0.080
3207,-0.205,-0.095
3208,-0.230,-0.115
3209,-0.210,-0.100
3210,-0.205,-0.090
3211,-0.200,-0.085
3212,-0.205,-0.090
3213,-0.175,-0.100
3214,-0.185,-0.120
3215,-0.190,-0.115
3216,-0.180,-0.115
3217,-0.170,-0.100
3218,-0.165,-0.095
3219,-0.170,-0.110
3220,-0.170,-0.110
3221,-0.180,-0.115
3222,-0.170,-0.105
3223,-0.165,-0.085
3224,-0.155,-0.100
3225,-0.170,-0.115
3226,-0.170,-0.130
3227,-0.165,-0.115
3228,-0.155,-0.100
3229,-0.150,-0.085
3230,-0.140,-0.095
3231,-0.145,-0.115
3232,-0.155,-0.115
3233,-0.170,-0.125
3234,-0.160,-0.105
3235,-0.145,-0.080
3236,-0.125,-0.100
3237,-0.135,-0.105
3238,-0.150,-0.120
3239,-0.165,-0.115
3240,-0.150,-0.110
3241,-0.130,-0.085
3242,-0.120,-0.100
3243,-0.120,-0.115
3244,-0.130,-0.115
3245,-0.130,-0.115
3246,-0.120,-0.105
3247,-0.110,-0.080
3248,-0.105,-0.085
3249,-0.100,-0.105
3250,-0.120,-0.125
3251,-0.120,-0.115
3252,-0.115,-0.100
3253,-0.095,-0.080
3254,-0.085,-0.090
3255,-0.080,-0.110
3256,-0.100,-0.115
3257,-0.100,-0.105
3258,-0.105,-0.105
3259,-0.080,-0.075
3260,-0.070,-0.080
3261,-0.070,-0.105
3262,-0.070,-0.115
3263,-0.085,-0.105
3264,-0.095,-0.110
3265,-0.085,-0.085
3266,-0.055,-0.095
3267,-0.060,-0.090
3268,-0.080,-0.105
3269,-0.080,-0.100
3270,-0.065,-0.090
3271,-0.070,-0.070
3272,-0.065,-0.080
3273,-0.075,-0.095
3274,-0.080,-0.110
3275,-0.085,-0.095
3276,-0.080,-0.090
3277,-0.085,-0.080
3278,-0.075,-0.090
3279,-0.095,-0.095
3280,-0.100,-0.110
3281,-0.115,-0.115
3282,-0.125,-0.110
3283,-0.110,-0.100
3284,-0.110,-0.110
3285,-0.110,-0.130
3286,-0.125,-0.145
3287,-0.125,-0.140
3288,-0.130,-0.135
3289,-0.135,-0.125
3290,-0.125,-0.130
3291,-0.140,-0.150
3292,-0.155,-0.160
3293,-0.165,-0.160
3294,-0.160,-0.150
3295,-0.140,-0.135
3296,-0.145,-0.135
3297,-0.145,-0.155
3298,-0.160,-0.175
3299,-0.170,-0.165
3300,-0.170,-0.160
3301,-0.165,-0.155
3302,-0.150,-0.150
3303,-0.165,-0.180
3304,-0.180,-0.180
3305,-0.180,-0.165
3306,-0.170,-0.160
3307,-0.160,-0.160
3308,-0.150,-0.145
3309,-0.165,-0.170
3310,-0.175,-0.185
3311,-0.175,-0.175
3312,-0.180,-0.155
3313,-0.160,-0.155
3314,-0.155,-0.155
3315,-0.165,-0.155
3316,-0.170,-0.175
3317,-0.175,-0.180
3318,-0.175,-0.170
3319,-0.170,-0.145
3320,-0.160,-0.160
3321,-0.170,-0.155
3322,-0.170,-0.180
3323,-0.190,-0.180
3324,-0.175,-0.160
3325,-0.155,-0.165
3326,-0.155,-0.170
3327,-0.165,-0.190
3328,-0.170,-0.200
3329,-0.185,-0.190
3330,-0.175,-0.170
3331,-0.165,-0.150
3332,-0.160,-0.155
3333,-0.170,-0.180
3334,-0.195,-0.195
3335,-0.195,-0.195
3336,-0.180,-0.175
3337,-0.160,-0.175
3338,-0.165,-0.180
3339,-0.160,-0.185
3340,-0.180,-0.200
3341,-0.175,-0.210
3342,-0.175,-0.180
3343,-0.160,-0.160
3344,-0.140,-0.175
3345,-0.140,-0.200
3346,-0.155,-0.205
3347,-0.160,-0.195
3348,-0.150,-0.190
3349,-0.135,-0.175
3350,-0.140,-0.185
3351,-0.135,-0.185
3352,-0.145,-0.200
3353,-0.155,-0.205
3354,-0.155,-0.200
3355,-0.140,-0.190
3356,-0.125,-0.190
3357,-0.130,-0.195
3358,-0.135,-0.205
3359,-0.150,-0.200
3360,-0.145,-0.190
3361,-0.135,-0.180
3362,-0.135,-0.190
3363,-0.145,-0.200
3364,-0.125,-0.210
3365,-0.150,-0.210
3366,-0.140,-0.190
3367,-0.135,-0.180
3368,-0.125,-0.195
3369,-0.130,-0.195
3370,-0.135,-0.215
3371,-0.140,-0.215
3372,-0.130,-0.195
3373,-0.115,-0.180
3374,-0.100,-0.190
3375,-0.115,-0.200
3376,-0.125,-0.210
3377,-0.130,-0.210
3378,-0.135,-0.190
3379,-0.115,-0.195
3380,-0.105,-0.195
3381,-0.120,-0.200
3382,-0.130,-0.205
3383,-0.140,-0.205
3384,-0.120,-0.195
3385,-0.105,-0.190
3386,-0.095,-0.200
3387,-0.095,-0.205
3388,-0.115,-0.215
3389,-0.130,-0.205
3390,-0.130,-0.200
3391,-0.110,-0.185
3392,-0.105,-0.190
3393,-0.100,-0.205
3394,-0.095,-0.200
3395,-0.105,-0.195
3396,-0.100,-0.200
3397,-0.100,-0.185
3398,-0.075,-0.190
3399,-0.090,-0.215
3400,-0.090,-0.220
3401,-0.115,-0.210
3402,-0.100,-0.190
3403,-0.095,-0.185
3404,-0.090,-0.190
3405,-0.095,-0.195
3406,-0.105,-0.205
3407,-0.115,-0.205
3408,-0.105,-0.185
3409,-0.085,-0.190
3410,-0.085,-0.185
3411,-0.095,-0.195
3412,-0.095,-0.200
3413,-0.110,-0.215
3414,-0.095,-0.200
3415,-0.085,-0.200
3416,-0.080,-0.210
3417,-0.085,-0.215
3418,-0.085,-0.230
3419,-0.100,-0.210
3420,-0.090,-0.200
3421,-0.085,-0.190
3422,-0.075,-0.195
3423,-0.080,-0.200
3424,-0.100,-0.230
3425,-0.095,-0.215
3426,-0.090,-0.205
3427,-0.075,-0.190
3428,-0.075,-0.200
3429,-0.070,-0.205
3430,-0.080,-0.210
3431,-0.095,-0.225
3432,-0.090,-0.195
3433,-0.075,-0.195
3434,-0.060,-0.200
3435,-0.075,-0.200
3436,-0.100,-0.220
3437,-0.085,-0.205
3438,-0.080,-0.185
3439,-0.070,-0.175
3440,-0.055,-0.190
3441,-0.070,-0.210
3442,-0.100,-0.220
3443,-0.100,-0.215
3444,-0.085,-0.200
3445,-0.055,-0.195
3446,-0.055,-0.200
3447,-0.055,-0.200
3448,-0.075,-0.210
3449,-0.080,-0.195
3450,-0.090,-0.190
3451,-0.055,-0.180
3452,-0.035,-0.190
3453,-0.050,-0.195
3454,-0.050,-0.205
3455,-0.050,-0.195
3456,-0.040,-0.190
3457,-0.040,-0.170
3458,-0.030,-0.185
3459,-0.030,-0.195
3460,-0.025,-0.230
3461,-0.045,-0.230
3462,-0.030,-0.215
3463,-0.010,-0.205
3464,0.000,-0.220
3465,-0.005,-0.250
3466,-0.025,-0.280
3467,-0.005,-0.265
3468,0.000,-0.270
3469,0.020,-0.270
3470,0.045,-0.270
3471,0.040,-0.295
3472,0.045,-0.305
3473,0.055,-0.300
3474,0.065,-0.280
3475,0.070,-0.265
3476,0.050,-0.270
3477,0.050,-0.260
3478,0.020,-0.265
3479,-0.005,-0.245
3480,0.000,-0.200
3481,-0.020,-0.170
3482,-0.005,-0.170
3483,-0.005,-0.175
3484,-0.005,-0.195
3485,-0.020,-0.190
3486,-0.025,-0.185
3487,-0.045,-0.185
3488,-0.045,-0.195
3489,-0.055,-0.195
3490,-0.070,-0.210
3491,-0.080,-0.200
3492,-0.080,-0.185
3493,-0.075,-0.175
3494,-0.070,-0.195
3495,-0.080,-0.200
3496,-0.065,-0.215
3497,-0.075,-0.215
3498,-0.070,-0.205
3499,-0.060,-0.205
3500,-0.055,-0.200
3501,-0.070,-0.205
3502,-0.075,-0.215
3503,-0.075,-0.195
3504,-0.055,-0.170
3505,-0.050,-0.145
3506,-0.040,-0.115
3507,-0.040,-0.080
3508,-0.045,-0.060
3509,-0.050,-0.070
3510,-0.040,-0.110
3511,-0.035,-0.200
3512,-0.050,-0.340
3513,-0.070,-0.550
3514,-0.070,-0.755
3515,-0.010,-0.935
3516,0.115,-1.085
3517,0.270,-1.175
3518,0.445,-1.175
3519,0.605,-1.115
3520,0.710,-0.985
3521,0.740,-0.830
3522,0.670,-0.665
3523,0.480,-0.515
3524,0.250,-0.390
3525,0.040,-0.255
3526,-0.075,-0.180
3527,-0.120,-0.130
3528,-0.115,-0.100
3529,-0.080,-0.080
3530,-0.045,-0.085
3531,-0.035,-0.100
3532,-0.055,-0.105
3533,-0.065,-0.095
3534,-0.070,-0.080
3535,-0.060,-0.065
3536,-0.050,-0.075
3537,-0.070,-0.095
3538,-0.085,-0.110
3539,-0.065,-0.100
3540,-0.060,-0.090
3541,-0.040,-0.080
3542,-0.030,-0.090
3543,-0.030,-0.100
3544,-0.065,-0.115
3545,-0.065,-0.115
3546,-0.065,-0.100
3547,-0.040,-0.095
3548,-0.030,-0.110
3549,-0.025,-0.100
3550,-0.050,-0.110
3551,-0.055,-0.100
3552,-0.045,-0.100
3553,-0.050,-0.085
3554,-0.045,-0.085
3555,-0.030,-0.095
3556,-0.035,-0.110
3557,-0.050,-0.115
3558,-0.035,-0.095
3559,-0.025,-0.080
3560,-0.005,-0.085
3561,-0.005,-0.100
3562,-0.015,-0.110
3563,-0.035,-0.110
3564,-0.020,-0.100
3565,-0.020,-0.100
3566,-0.015,-0.100
3567,-0.030,-0.105
3568,-0.050,-0.120
3569,-0.050,-0.120
3570,-0.045,-0.110
3571,-0.025,-0.095
3572,-0.025,-0.095
3573,-0.025,-0.110
3574,-0.040,-0.125
3575,-0.040,-0.125
3576,-0.030,-0.105
3577,-0.015,-0.090
3578,-0.010,-0.100
3579,-0.015,-0.100
3580,-0.035,-0.110
3581,-0.035,-0.115
3582,-0.015,-0.100
3583,-0.005,-0.095
3584,0.005,-0.100
3585,-0.020,-0.110
3586,-0.030,-0.115
3587,-0.035,-0.120
3588,-0.020,-0.100
3589,-0.015,-0.095
3590,-0.005,-0.105
3591,-0.010,-0.115
3592,-0.015,-0.115
3593,-0.025,-0.115
3594,-0.020,-0.100
3595,-0.020,-0.090
3596,0.005,-0.090
3597,0.005,-0.115
3598,0.000,-0.120
3599,-0.015,-0.120
