0,-0.080,0.135
1,-0.080,0.135
2,-0.080,0.135
3,-0.080,0.135
4,-0.080,0.135
5,-0.080,0.135
6,-0.080,0.135
7,-0.080,0.135
8,-0.075,0.135
9,-0.075,0.145
10,-0.090,0.155
11,-0.065,0.175
12,-0.055,0.180
13,-0.050,0.175
14,-0.050,0.165
15,-0.065,0.145
16,-0.070,0.145
17,-0.075,0.150
18,-0.080,0.150
19,-0.080,0.150
20,-0.085,0.150
21,-0.085,0.155
22,-0.095,0.155
23,-0.075,0.170
24,-0.070,0.175
25,-0.065,0.170
26,-0.060,0.145
27,-0.070,0.140
28,-0.075,0.135
29,-0.075,0.150
30,-0.080,0.155
31,-0.075,0.145
32,-0.070,0.140
33,-0.060,0.145
34,-0.065,0.170
35,-0.055,0.185
36,-0.055,0.170
37,-0.050,0.170
38,-0.050,0.150
39,-0.050,0.140
40,-0.060,0.135
41,-0.065,0.145
42,-0.065,0.145
43,-0.080,0.145
44,-0.065,0.150
45,-0.065,0.140
46,-0.060,0.160
47,-0.055,0.170
48,-0.055,0.170
49,-0.050,0.170
50,-0.050,0.140
51,-0.065,0.140
52,-0.065,0.130
53,-0.060,0.150
54,-0.050,0.155
55,-0.050,0.145
56,-0.045,0.150
57,-0.045,0.140
58,-0.050,0.150
59,-0.050,0.170
60,-0.050,0.175
61,-0.045,0.165
62,-0.055,0.155
63,-0.050,0.140
64,-0.065,0.140
65,-0.080,0.140
66,-0.080,0.150
67,-0.065,0.150
68,-0.060,0.155
69,-0.055,0.160
70,-0.050,0.175
71,-0.050,0.195
72,-0.035,0.190
73,-0.020,0.185
74,-0.015,0.175
75,-0.020,0.175
76,-0.015,0.180
77,-0.010,0.215
78,0.005,0.195
79,0.015,0.195
80,0.025,0.190
81,0.035,0.195
82,0.060,0.205
83,0.075,0.230
84,0.090,0.220
85,0.115,0.200
86,0.135,0.180
87,0.130,0.170
88,0.125,0.155
89,0.105,0.165
90,0.095,0.165
91,0.105,0.160
92,0.095,0.155
93,0.100,0.155
94,0.105,0.175
95,0.105,0.165
96,0.085,0.165
97,0.070,0.135
98,0.045,0.100
99,0.010,0.105
100,-0.020,0.125
101,-0.050,0.125
102,-0.070,0.135
103,-0.090,0.135
104,-0.095,0.135
105,-0.080,0.120
106,-0.080,0.135
107,-0.075,0.145
108,-0.085,0.145
109,-0.090,0.135
110,-0.095,0.115
111,-0.110,0.115
112,-0.120,0.115
113,-0.125,0.130
114,-0.135,0.135
115,-0.135,0.120
116,-0.140,0.120
117,-0.125,0.110
118,-0.125,0.130
119,-0.115,0.135
120,-0.130,0.140
121,-0.120,0.105
122,-0.125,0.090
123,-0.140,0.085
124,-0.155,0.095
125,-0.135,0.110
126,-0.070,0.100
127,0.025,0.085
128,0.190,0.080
129,0.395,0.075
130,0.635,0.085
131,0.900,0.120
132,1.180,0.185
133,1.415,0.260
134,1.595,0.390
135,1.660,0.525
136,1.575,0.645
137,1.370,0.730
138,1.065,0.735
139,0.720,0.645
140,0.380,0.495
141,0.110,0.335
142,-0.090,0.165
143,-0.185,0.055
144,-0.230,-0.020
145,-0.205,-0.020
146,-0.165,0.020
147,-0.120,0.075
148,-0.110,0.125
149,-0.125,0.130
150,-0.140,0.130
151,-0.155,0.110
152,-0.170,0.110
153,-0.185,0.120
154,-0.190,0.125
155,-0.180,0.125
156,-0.175,0.115
157,-0.155,0.100
158,-0.180,0.105
159,-0.180,0.105
160,-0.180,0.100
161,-0.190,0.085
162,-0.205,0.070
163,-0.220,0.080
164,-0.215,0.105
165,-0.190,0.115
166,-0.170,0.115
167,-0.155,0.095
168,-0.150,0.090
169,-0.150,0.105
170,-0.170,0.095
171,-0.175,0.075
172,-0.165,0.070
173,-0.175,0.080
174,-0.190,0.085
175,-0.190,0.100
176,-0.185,0.090
177,-0.155,0.080
178,-0.140,0.090
179,-0.130,0.080
180,-0.130,0.090
181,-0.135,0.085
182,-0.135,0.060
183,-0.140,0.040
184,-0.140,0.030
185,-0.150,0.030
186,-0.155,0.045
187,-0.145,0.040
188,-0.150,0.040
189,-0.145,0.030
190,-0.120,0.030
191,-0.105,0.045
192,-0.095,0.040
193,-0.085,0.025
194,-0.080,0.020
195,-0.080,0.000
196,-0.080,0.000
197,-0.085,0.000
198,-0.080,0.000
199,-0.095,0.000
200,-0.075,-0.010
201,-0.070,-0.025
202,-0.065,-0.005
203,-0.045,0.000
204,-0.025,-0.010
205,-0.025,-0.010
206,-0.020,-0.025
207,-0.020,-0.035
208,-0.030,-0.030
209,-0.035,-0.040
210,-0.030,-0.035
211,-0.035,-0.045
212,-0.035,-0.045
213,-0.035,-0.040
214,-0.035,-0.020
215,-0.030,-0.010
216,-0.025,-0.025
217,-0.010,-0.030
218,-0.010,-0.030
219,-0.020,-0.020
220,-0.035,-0.010
221,-0.030,0.000
222,-0.025,-0.005
223,-0.010,0.000
224,0.000,0.005
225,0.020,0.040
226,0.040,0.070
227,0.065,0.085
228,0.065,0.095
229,0.060,0.095
230,0.055,0.110
231,0.075,0.120
232,0.070,0.135
233,0.060,0.130
234,0.055,0.125
235,0.045,0.110
236,0.035,0.115
237,0.045,0.135
238,0.040,0.155
239,0.045,0.150
240,0.040,0.145
241,0.045,0.125
242,0.045,0.135
243,0.030,0.150
244,0.020,0.155
245,0.030,0.160
246,0.020,0.160
247,0.025,0.140
248,0.030,0.155
249,0.030,0.155
250,0.035,0.175
251,0.035,0.180
252,0.030,0.160
253,0.030,0.145
254,0.035,0.135
255,0.035,0.140
256,0.030,0.150
257,0.030,0.140
258,0.030,0.140
259,0.025,0.130
260,0.030,0.135
261,0.030,0.165
262,0.035,0.165
263,0.040,0.175
264,0.040,0.165
265,0.045,0.160
266,0.045,0.130
267,0.030,0.125
268,0.030,0.140
269,0.015,0.130
270,0.045,0.130
271,0.045,0.135
272,0.055,0.135
273,0.045,0.145
274,0.055,0.170
275,0.060,0.175
276,0.055,0.165
277,0.055,0.150
278,0.060,0.130
279,0.045,0.110
280,0.050,0.135
281,0.035,0.140
282,0.040,0.140
283,0.050,0.130
284,0.055,0.120
285,0.060,0.135
286,0.070,0.150
287,0.080,0.175
288,0.070,0.180
289,0.070,0.165
290,0.045,0.135
291,0.045,0.125
292,0.035,0.135
293,0.035,0.130
294,0.035,0.145
295,0.045,0.130
296,0.050,0.130
297,0.045,0.130
298,0.055,0.150
299,0.060,0.165
300,0.065,0.165
301,0.055,0.155
302,0.070,0.135
303,0.065,0.135
304,0.055,0.155
305,0.055,0.170
306,0.060,0.190
307,0.080,0.175
308,0.100,0.190
309,0.110,0.195
310,0.130,0.210
311,0.130,0.230
312,0.140,0.220
313,0.170,0.205
314,0.180,0.185
315,0.195,0.175
316,0.195,0.170
317,0.205,0.185
318,0.215,0.165
319,0.210,0.165
320,0.210,0.150
321,0.210,0.155
322,0.215,0.175
323,0.215,0.175
324,0.220,0.180
325,0.220,0.155
326,0.205,0.120
327,0.180,0.095
328,0.150,0.085
329,0.125,0.100
330,0.090,0.115
331,0.070,0.115
332,0.065,0.115
333,0.045,0.140
334,0.040,0.155
335,0.040,0.155
336,0.040,0.155
337,0.020,0.130
338,0.015,0.110
339,0.010,0.090
340,0.010,0.080
341,-0.010,0.100
342,-0.005,0.115
343,-0.010,0.105
344,-0.020,0.100
345,-0.020,0.110
346,-0.020,0.110
347,-0.010,0.120
348,-0.015,0.125
349,-0.010,0.115
350,-0.010,0.105
351,-0.020,0.080
352,-0.040,0.075
353,-0.035,0.070
354,-0.060,0.085
355,-0.065,0.075
356,-0.040,0.085
357,0.020,0.095
358,0.115,0.110
359,0.240,0.105
360,0.395,0.095
361,0.600,0.075
362,0.855,0.055
363,1.110,0.060
364,1.370,0.125
365,1.590,0.215
366,1.735,0.350
367,1.770,0.475
368,1.640,0.585
369,1.410,0.630
370,1.090,0.610
371,0.740,0.535
372,0.425,0.380
373,0.175,0.215
374,-0.010,0.060
375,-0.095,-0.045
376,-0.110,-0.055
377,-0.100,-0.035
378,-0.060,0.035
379,-0.025,0.080
380,-0.010,0.105
381,-0.035,0.105
382,-0.055,0.110
383,-0.075,0.115
384,-0.110,0.100
385,-0.120,0.090
386,-0.125,0.075
387,-0.120,0.060
388,-0.120,0.070
389,-0.120,0.085
390,-0.140,0.100
391,-0.125,0.090
392,-0.125,0.075
393,-0.125,0.075
394,-0.120,0.090
395,-0.120,0.105
396,-0.115,0.115
397,-0.115,0.100
398,-0.110,0.075
399,-0.135,0.070
400,-0.135,0.060
401,-0.145,0.070
402,-0.140,0.065
403,-0.130,0.055
404,-0.120,0.070
405,-0.120,0.070
406,-0.120,0.085
407,-0.110,0.080
408,-0.105,0.075
409,-0.105,0.055
410,-0.115,0.045
411,-0.115,0.045
412,-0.125,0.050
413,-0.125,0.065
414,-0.115,0.060
415,-0.110,0.060
416,-0.100,0.050
417,-0.095,0.060
418,-0.085,0.080
419,-0.075,0.070
420,-0.070,0.055
421,-0.065,0.035
422,-0.080,0.030
423,-0.095,0.015
424,-0.095,0.035
425,-0.095,0.035
426,-0.090,0.015
427,-0.080,0.000
428,-0.080,0.010
429,-0.060,0.015
430,-0.060,0.015
431,-0.030,0.010
432,-0.030,0.000
433,-0.025,-0.020
434,-0.035,-0.015
435,-0.035,-0.005
436,-0.055,-0.010
437,-0.045,-0.030
438,-0.050,-0.060
439,-0.040,-0.060
440,-0.030,-0.040
441,-0.020,-0.025
442,0.000,-0.020
443,0.010,-0.025
444,0.005,-0.050
445,0.005,-0.055
446,-0.015,-0.050
447,-0.025,-0.050
448,-0.025,-0.060
449,-0.035,-0.070
450,-0.025,-0.075
451,-0.020,-0.065
452,-0.030,-0.050
453,-0.020,-0.020
454,0.000,-0.015
455,0.010,-0.010
456,0.005,-0.015
457,0.000,-0.010
458,0.005,0.005
459,-0.005,0.020
460,0.000,0.020
461,0.000,0.020
462,0.015,0.020
463,0.015,0.050
464,0.020,0.080
465,0.040,0.110
466,0.060,0.130
467,0.070,0.120
468,0.070,0.115
469,0.070,0.110
470,0.050,0.110
471,0.035,0.120
472,0.025,0.115
473,0.020,0.100
474,0.030,0.110
475,0.015,0.105
476,0.015,0.115
477,0.020,0.140
478,0.030,0.160
479,0.035,0.160
480,0.035,0.150
481,0.040,0.140
482,0.045,0.125
483,0.025,0.135
484,0.025,0.140
485,0.015,0.135
486,0.010,0.115
487,0.000,0.095
488,-0.005,0.105
489,-0.005,0.130
490,-0.005,0.145
491,0.005,0.155
492,0.020,0.135
493,0.030,0.120
494,0.045,0.120
495,0.030,0.130
496,0.030,0.120
497,0.010,0.120
498,-0.005,0.110
499,-0.005,0.105
500,0.005,0.115
501,0.005,0.130
502,0.010,0.150
503,0.020,0.155
504,0.030,0.135
505,0.025,0.130
506,0.025,0.115
507,0.025,0.120
508,0.025,0.135
509,0.005,0.125
510,0.025,0.115
511,0.020,0.100
512,0.025,0.105
513,0.025,0.105
514,0.030,0.140
515,0.040,0.155
516,0.020,0.145
517,0.030,0.135
518,0.030,0.120
519,0.035,0.115
520,0.035,0.125
521,0.035,0.145
522,0.040,0.130
523,0.040,0.125
524,0.035,0.125
525,0.040,0.140
526,0.035,0.155
527,0.035,0.150
528,0.030,0.150
529,0.030,0.120
530,0.035,0.110
531,0.025,0.090
532,0.020,0.105
533,0.010,0.115
534,0.025,0.125
535,0.015,0.125
536,0.035,0.125
537,0.040,0.120
538,0.025,0.150
539,0.030,0.160
540,0.045,0.160
541,0.055,0.155
542,0.060,0.150
543,0.055,0.160
544,0.050,0.170
545,0.060,0.170
546,0.070,0.175
547,0.085,0.175
548,0.110,0.175
549,0.120,0.175
550,0.140,0.185
551,0.160,0.195
552,0.165,0.195
553,0.190,0.185
554,0.205,0.165
555,0.205,0.135
556,0.200,0.120
557,0.175,0.125
558,0.155,0.140
559,0.155,0.150
560,0.165,0.140
561,0.180,0.125
562,0.195,0.130
563,0.210,0.130
564,0.190,0.140
565,0.170,0.140
566,0.155,0.110
567,0.115,0.080
568,0.095,0.075
569,0.055,0.080
570,0.035,0.110
571,0.015,0.135
572,0.015,0.130
573,0.005,0.115
574,-0.005,0.105
575,0.000,0.090
576,-0.025,0.090
577,-0.035,0.105
578,-0.040,0.105
579,-0.040,0.100
580,-0.050,0.070
581,-0.065,0.055
582,-0.080,0.085
583,-0.090,0.100
584,-0.080,0.105
585,-0.075,0.115
586,-0.080,0.095
587,-0.065,0.105
588,-0.060,0.100
589,-0.070,0.120
590,-0.070,0.105
591,-0.070,0.080
592,-0.075,0.065
593,-0.105,0.040
594,-0.110,0.040
595,-0.110,0.060
596,-0.075,0.095
597,0.005,0.100
598,0.115,0.090
599,0.255,0.050
600,0.435,0.035
601,0.655,0.035
602,0.905,0.045
603,1.175,0.090
604,1.440,0.135
605,1.645,0.230
606,1.745,0.335
607,1.690,0.465
608,1.520,0.570
609,1.245,0.600
610,0.915,0.565
611,0.575,0.430
612,0.270,0.265
613,0.045,0.130
614,-0.090,0.005
615,-0.150,-0.060
616,-0.155,-0.075
617,-0.120,-0.045
618,-0.095,0.015
619,-0.080,0.065
620,-0.085,0.125
621,-0.100,0.105
622,-0.120,0.105
623,-0.140,0.085
624,-0.160,0.085
625,-0.170,0.090
626,-0.180,0.110
627,-0.175,0.080
628,-0.165,0.060
629,-0.165,0.055
630,-0.185,0.070
631,-0.180,0.080
632,-0.175,0.105
633,-0.175,0.095
634,-0.170,0.085
635,-0.165,0.080
636,-0.175,0.075
637,-0.175,0.095
638,-0.185,0.090
639,-0.185,0.070
640,-0.185,0.045
641,-0.180,0.055
642,-0.180,0.065
643,-0.175,0.055
644,-0.160,0.075
645,-0.155,0.075
646,-0.160,0.075
647,-0.145,0.065
648,-0.150,0.085
649,-0.165,0.095
650,-0.160,0.085
651,-0.155,0.060
652,-0.175,0.040
653,-0.175,0.025
654,-0.165,0.035
655,-0.165,0.055
656,-0.160,0.060
657,-0.145,0.060
658,-0.125,0.050
659,-0.125,0.055
660,-0.125,0.045
661,-0.140,0.055
662,-0.135,0.035
663,-0.135,0.005
664,-0.135,-0.005
665,-0.140,-0.005
666,-0.140,0.005
667,-0.125,0.015
668,-0.110,0.010
669,-0.115,0.005
670,-0.100,0.000
671,-0.095,0.000
672,-0.095,0.015
673,-0.100,0.015
674,-0.090,-0.020
675,-0.095,-0.040
676,-0.090,-0.065
677,-0.095,-0.065
678,-0.100,-0.055
679,-0.095,-0.040
680,-0.080,-0.035
681,-0.055,-0.040
682,-0.040,-0.050
683,-0.030,-0.025
684,-0.025,-0.020
685,-0.025,-0.015
686,-0.035,-0.035
687,-0.040,-0.050
688,-0.050,-0.080
689,-0.055,-0.060
690,-0.070,-0.050
691,-0.065,-0.025
692,-0.050,-0.040
693,-0.040,-0.045
694,-0.025,-0.045
695,-0.025,-0.025
696,-0.005,-0.020
697,-0.020,-0.010
698,-0.010,-0.010
699,-0.015,-0.010
700,-0.015,0.015
701,-0.020,0.030
702,-0.015,0.050
703,-0.015,0.060
704,0.000,0.065
705,0.015,0.070
706,0.015,0.110
707,0.030,0.130
708,0.030,0.140
709,0.025,0.135
710,0.015,0.120
711,0.005,0.090
712,-0.005,0.115
713,-0.020,0.125
714,-0.030,0.130
715,-0.030,0.135
716,-0.020,0.120
717,-0.025,0.115
718,-0.015,0.135
719,-0.020,0.145
720,-0.015,0.140
721,-0.015,0.125
722,-0.020,0.115
723,-0.035,0.110
724,-0.045,0.110
725,-0.045,0.120
726,-0.060,0.125
727,-0.065,0.120
728,-0.060,0.115
729,-0.060,0.135
730,-0.045,0.155
731,-0.030,0.165
732,-0.020,0.150
733,-0.010,0.135
734,-0.015,0.115
735,-0.030,0.115
736,-0.035,0.120
737,-0.050,0.105
738,-0.050,0.100
739,-0.055,0.105
740,-0.045,0.120
741,-0.040,0.135
742,-0.030,0.145
743,-0.020,0.145
744,-0.015,0.120
745,-0.015,0.120
746,-0.015,0.130
747,-0.020,0.135
748,-0.035,0.120
749,-0.040,0.105
750,-0.045,0.090
751,-0.045,0.110
752,-0.035,0.120
753,-0.030,0.145
754,-0.020,0.155
755,-0.005,0.145
756,0.005,0.145
757,-0.005,0.135
758,0.000,0.130
759,-0.015,0.125
760,-0.030,0.120
761,-0.035,0.100
762,-0.035,0.095
763,-0.030,0.100
764,-0.050,0.110
765,-0.045,0.145
766,-0.055,0.160
767,-0.040,0.155
768,-0.035,0.140
769,-0.030,0.130
770,-0.030,0.130
771,-0.025,0.140
772,-0.030,0.150
773,-0.035,0.125
774,-0.035,0.110
775,-0.030,0.105
776,-0.015,0.120
777,-0.015,0.140
778,-0.005,0.165
779,0.020,0.185
780,0.040,0.160
781,0.045,0.175
782,0.050,0.170
783,0.045,0.180
784,0.045,0.185
785,0.050,0.180
786,0.065,0.175
787,0.085,0.165
788,0.095,0.175
789,0.105,0.175
790,0.125,0.185
791,0.130,0.185
792,0.145,0.160
793,0.125,0.135
794,0.110,0.140
795,0.120,0.130
796,0.115,0.135
797,0.120,0.135
798,0.120,0.120
799,0.105,0.105
800,0.090,0.090
801,0.070,0.110
802,0.035,0.110
803,0.025,0.120
804,0.000,0.115
805,-0.010,0.120
806,-0.020,0.105
807,-0.040,0.125
808,-0.060,0.130
809,-0.075,0.125
810,-0.090,0.115
811,-0.090,0.100
812,-0.095,0.095
813,-0.100,0.100
814,-0.105,0.100
815,-0.100,0.130
816,-0.100,0.115
817,-0.100,0.105
818,-0.100,0.085
819,-0.115,0.070
820,-0.120,0.070
821,-0.130,0.095
822,-0.130,0.100
823,-0.125,0.090
824,-0.115,0.090
825,-0.105,0.095
826,-0.110,0.105
827,-0.110,0.120
828,-0.130,0.115
829,-0.145,0.090
830,-0.130,0.075
831,-0.100,0.070
832,-0.040,0.085
833,0.055,0.090
834,0.180,0.080
835,0.360,0.055
836,0.575,0.020
837,0.835,0.030
838,1.115,0.080
839,1.375,0.170
840,1.585,0.285
841,1.690,0.395
842,1.680,0.490
843,1.525,0.565
844,1.255,0.600
845,0.950,0.570
846,0.630,0.490
847,0.320,0.350
848,0.085,0.190
849,-0.060,0.050
850,-0.135,-0.040
851,-0.155,-0.040
852,-0.145,-0.010
853,-0.110,0.035
854,-0.085,0.065
855,-0.065,0.070
856,-0.085,0.065
857,-0.125,0.075
858,-0.165,0.085
859,-0.175,0.095
860,-0.195,0.100
861,-0.205,0.100
862,-0.195,0.075
863,-0.185,0.075
864,-0.180,0.090
865,-0.195,0.095
866,-0.180,0.095
867,-0.175,0.075
868,-0.185,0.050
869,-0.195,0.040
870,-0.200,0.035
871,-0.205,0.070
872,-0.205,0.090
873,-0.200,0.090
874,-0.195,0.080
875,-0.180,0.085
876,-0.190,0.080
877,-0.185,0.085
878,-0.180,0.090
879,-0.180,0.075
880,-0.180,0.045
881,-0.180,0.020
882,-0.185,0.025
883,-0.185,0.040
884,-0.190,0.060
885,-0.200,0.070
886,-0.180,0.070
887,-0.180,0.060
888,-0.180,0.050
889,-0.175,0.060
890,-0.170,0.060
891,-0.180,0.050
892,-0.175,0.040
893,-0.170,0.010
894,-0.170,0.015
895,-0.170,0.030
896,-0.175,0.045
897,-0.170,0.035
898,-0.145,0.035
899,-0.145,0.025
900,-0.150,0.005
901,-0.150,0.020
902,-0.145,0.010
903,-0.140,0.015
904,-0.135,0.000
905,-0.135,-0.030
906,-0.125,-0.020
907,-0.140,-0.025
908,-0.120,-0.005
909,-0.115,-0.005
910,-0.110,-0.025
911,-0.090,-0.025
912,-0.085,-0.045
913,-0.095,-0.035
914,-0.095,-0.030
915,-0.100,-0.035
916,-0.090,-0.055
917,-0.110,-0.080
918,-0.090,-0.085
919,-0.085,-0.075
920,-0.080,-0.065
921,-0.070,-0.050
922,-0.075,-0.060
923,-0.050,-0.080
924,-0.055,-0.080
925,-0.045,-0.080
926,-0.050,-0.080
927,-0.070,-0.070
928,-0.075,-0.075
929,-0.070,-0.105
930,-0.080,-0.100
931,-0.065,-0.090
932,-0.070,-0.065
933,-0.065,-0.050
934,-0.045,-0.050
935,-0.035,-0.050
936,-0.040,-0.060
937,-0.025,-0.045
938,-0.025,-0.010
939,-0.020,0.005
940,-0.025,0.000
941,-0.040,0.000
942,-0.045,-0.010
943,-0.035,0.005
944,-0.030,0.045
945,-0.005,0.080
946,-0.010,0.085
947,0.010,0.095
948,0.010,0.090
949,0.015,0.095
950,0.020,0.090
951,0.000,0.105
952,-0.010,0.100
953,-0.010,0.075
954,-0.020,0.070
955,-0.025,0.085
956,-0.030,0.095
957,-0.035,0.125
958,-0.030,0.135
959,-0.010,0.120
960,0.000,0.105
961,-0.010,0.100
962,-0.010,0.105
963,-0.020,0.110
964,-0.030,0.120
965,-0.030,0.120
966,-0.040,0.095
967,-0.045,0.095
968,-0.035,0.100
969,-0.040,0.110
970,-0.035,0.125
971,-0.030,0.110
972,-0.015,0.095
973,-0.010,0.090
974,-0.010,0.105
975,-0.015,0.105
976,-0.010,0.110
977,-0.025,0.090
978,-0.035,0.075
979,-0.040,0.075
980,-0.045,0.095
981,-0.040,0.125
982,-0.040,0.120
983,-0.030,0.120
984,-0.015,0.105
985,-0.015,0.095
986,-0.025,0.095
987,-0.010,0.110
988,-0.020,0.110
989,-0.030,0.090
990,-0.020,0.080
991,-0.025,0.085
992,-0.025,0.100
993,-0.035,0.120
994,-0.035,0.115
995,-0.035,0.115
996,-0.010,0.100
997,-0.010,0.095
998,-0.010,0.120
999,-0.025,0.120
1000,-0.030,0.100
1001,-0.025,0.090
1002,-0.030,0.085
1003,-0.045,0.115
1004,-0.025,0.125
1005,-0.030,0.135
1006,-0.030,0.135
1007,-0.020,0.110
1008,-0.030,0.105
1009,-0.035,0.090
1010,-0.045,0.095
1011,-0.045,0.095
1012,-0.050,0.090
1013,-0.065,0.090
1014,-0.050,0.090
1015,-0.055,0.120
1016,-0.025,0.125
1017,-0.030,0.145
1018,-0.015,0.130
1019,0.005,0.130
1020,0.005,0.150
1021,0.010,0.165
1022,0.015,0.170
1023,0.015,0.175
1024,0.020,0.155
1025,0.030,0.145
1026,0.040,0.165
1027,0.060,0.175
1028,0.075,0.180
1029,0.110,0.175
1030,0.145,0.150
1031,0.145,0.130
1032,0.150,0.125
1033,0.145,0.125
1034,0.120,0.125
1035,0.105,0.105
1036,0.100,0.090
1037,0.095,0.095
1038,0.095,0.100
1039,0.095,0.105
1040,0.075,0.125
1041,0.085,0.110
1042,0.075,0.100
1043,0.050,0.085
1044,0.015,0.085
1045,0.000,0.100
1046,-0.025,0.110
1047,-0.050,0.110
1048,-0.060,0.090
1049,-0.070,0.070
1050,-0.095,0.075
1051,-0.100,0.070
1052,-0.105,0.095
1053,-0.100,0.100
1054,-0.090,0.085
1055,-0.085,0.065
1056,-0.090,0.075
1057,-0.095,0.080
1058,-0.105,0.090
1059,-0.120,0.090
1060,-0.115,0.075
1061,-0.125,0.060
1062,-0.130,0.060
1063,-0.140,0.085
1064,-0.135,0.095
1065,-0.125,0.115
1066,-0.125,0.100
1067,-0.125,0.070
1068,-0.140,0.050
1069,-0.145,0.025
1070,-0.160,0.040
1071,-0.170,0.055
1072,-0.120,0.070
1073,-0.060,0.070
1074,0.030,0.045
1075,0.145,0.025
1076,0.310,0.000
1077,0.520,0.010
1078,0.775,0.035
1079,1.050,0.065
1080,1.315,0.130
1081,1.525,0.235
1082,1.645,0.330
1083,1.650,0.445
1084,1.505,0.560
1085,1.260,0.595
1086,0.955,0.590
1087,0.630,0.505
1088,0.335,0.365
1089,0.100,0.220
1090,-0.055,0.090
1091,-0.140,-0.020
1092,-0.165,-0.070
1093,-0.150,-0.085
1094,-0.120,-0.040
1095,-0.090,0.010
1096,-0.085,0.070
1097,-0.090,0.090
1098,-0.110,0.095
1099,-0.155,0.085
1100,-0.165,0.075
1101,-0.185,0.075
1102,-0.195,0.085
1103,-0.200,0.080
1104,-0.195,0.065
1105,-0.190,0.060
1106,-0.185,0.055
1107,-0.195,0.075
1108,-0.200,0.085
1109,-0.200,0.080
1110,-0.200,0.075
1111,-0.195,0.050
1112,-0.185,0.040
1113,-0.185,0.055
1114,-0.185,0.070
1115,-0.190,0.075
1116,-0.180,0.070
1117,-0.175,0.050
1118,-0.190,0.045
1119,-0.205,0.035
1120,-0.205,0.045
1121,-0.200,0.050
1122,-0.190,0.050
1123,-0.185,0.035
1124,-0.180,0.020
1125,-0.165,0.035
1126,-0.155,0.055
1127,-0.155,0.075
1128,-0.155,0.060
1129,-0.145,0.035
1130,-0.165,0.025
1131,-0.165,0.015
1132,-0.170,0.025
1133,-0.180,0.035
1134,-0.175,0.045
1135,-0.170,0.020
1136,-0.165,0.020
1137,-0.165,0.015
1138,-0.150,0.020
1139,-0.145,0.025
1140,-0.140,0.025
1141,-0.125,0.005
1142,-0.135,-0.015
1143,-0.130,-0.030
1144,-0.145,-0.025
1145,-0.150,-0.005
1146,-0.145,0.015
1147,-0.160,0.010
1148,-0.155,-0.010
1149,-0.140,-0.030
1150,-0.130,-0.025
1151,-0.110,-0.020
1152,-0.105,-0.005
1153,-0.105,-0.015
1154,-0.100,-0.030
1155,-0.090,-0.050
1156,-0.095,-0.075
1157,-0.100,-0.070
1158,-0.110,-0.055
1159,-0.110,-0.035
1160,-0.110,-0.045
1161,-0.090,-0.040
1162,-0.075,-0.050
1163,-0.070,-0.050
1164,-0.075,-0.040
1165,-0.070,-0.040
1166,-0.070,-0.050
1167,-0.065,-0.065
1168,-0.070,-0.075
1169,-0.070,-0.075
1170,-0.065,-0.060
1171,-0.070,-0.035
1172,-0.065,-0.020
1173,-0.065,-0.015
1174,-0.060,-0.030
1175,-0.045,-0.050
1176,-0.055,-0.045
1177,-0.060,-0.035
1178,-0.065,-0.020
1179,-0.065,-0.035
1180,-0.070,-0.040
1181,-0.055,-0.040
1182,-0.030,-0.030
1183,-0.015,0.020
1184,-0.005,0.060
1185,0.005,0.055
1186,0.010,0.060
1187,0.020,0.050
1188,0.010,0.055
1189,0.015,0.070
1190,0.010,0.095
1191,-0.010,0.105
1192,-0.020,0.100
1193,-0.035,0.090
1194,-0.005,0.095
1195,-0.005,0.100
1196,0.000,0.130
1197,0.005,0.155
1198,0.010,0.140
1199,0.010,0.120
1200,0.000,0.110
1201,0.000,0.110
1202,-0.015,0.115
1203,-0.025,0.120
1204,-0.025,0.110
1205,-0.030,0.105
1206,-0.030,0.090
1207,-0.030,0.100
1208,-0.025,0.115
1209,-0.025,0.145
1210,-0.010,0.155
1211,0.005,0.140
1212,-0.005,0.120
1213,0.000,0.105
1214,-0.020,0.090
1215,-0.030,0.105
1216,-0.045,0.110
1217,-0.045,0.100
1218,-0.055,0.100
1219,-0.040,0.105
1220,-0.040,0.110
1221,-0.025,0.140
1222,-0.020,0.130
1223,-0.010,0.135
1224,0.000,0.110
1225,0.010,0.095
1226,-0.005,0.095
1227,-0.015,0.105
1228,-0.025,0.115
1229,-0.020,0.105
1230,-0.025,0.105
1231,-0.030,0.080
1232,-0.025,0.095
1233,-0.020,0.120
1234,-0.015,0.145
1235,0.000,0.150
1236,0.000,0.135
1237,0.000,0.125
1238,-0.005,0.115
1239,0.000,0.110
1240,-0.015,0.120
1241,-0.015,0.130
1242,-0.025,0.105
1243,-0.020,0.100
1244,-0.035,0.085
1245,-0.030,0.105
1246,-0.020,0.130
1247,-0.015,0.135
1248,-0.005,0.145
1249,0.000,0.125
1250,-0.010,0.105
1251,-0.015,0.095
1252,-0.020,0.100
1253,-0.020,0.115
1254,-0.020,0.120
1255,-0.030,0.105
1256,-0.030,0.105
1257,-0.025,0.115
1258,-0.020,0.135
1259,-0.015,0.140
1260,-0.020,0.145
1261,-0.020,0.145
1262,-0.015,0.115
1263,-0.010,0.105
1264,-0.020,0.125
1265,-0.020,0.135
1266,0.000,0.145
1267,0.005,0.145
1268,0.010,0.155
1269,0.025,0.175
1270,0.030,0.200
1271,0.040,0.205
1272,0.065,0.195
1273,0.075,0.180
1274,0.075,0.160
1275,0.090,0.170
1276,0.105,0.170
1277,0.110,0.175
1278,0.145,0.170
1279,0.160,0.155
1280,0.155,0.140
1281,0.160,0.145
1282,0.150,0.165
1283,0.140,0.180
1284,0.130,0.170
1285,0.135,0.135
1286,0.120,0.095
1287,0.095,0.085
1288,0.075,0.090
1289,0.055,0.095
1290,0.040,0.095
1291,0.015,0.095
1292,0.015,0.095
1293,0.000,0.125
1294,-0.015,0.145
1295,-0.020,0.160
1296,-0.045,0.145
1297,-0.055,0.120
1298,-0.075,0.100
1299,-0.100,0.095
1300,-0.115,0.105
1301,-0.120,0.115
1302,-0.115,0.110
1303,-0.110,0.100
1304,-0.090,0.095
1305,-0.105,0.105
1306,-0.095,0.120
1307,-0.095,0.130
1308,-0.105,0.130
1309,-0.105,0.120
1310,-0.110,0.095
1311,-0.125,0.090
1312,-0.125,0.095
1313,-0.155,0.085
1314,-0.160,0.080
1315,-0.170,0.055
1316,-0.155,0.045
1317,-0.135,0.075
1318,-0.080,0.105
1319,0.015,0.110
1320,0.155,0.090
1321,0.345,0.065
1322,0.585,0.030
1323,0.850,0.050
1324,1.105,0.120
1325,1.355,0.220
1326,1.550,0.325
1327,1.620,0.460
1328,1.550,0.575
1329,1.330,0.660
1330,1.005,0.655
1331,0.640,0.550
1332,0.305,0.375
1333,0.030,0.200
1334,-0.135,0.055
1335,-0.215,-0.025
1336,-0.215,-0.040
1337,-0.195,-0.020
1338,-0.160,0.020
1339,-0.120,0.080
1340,-0.105,0.130
1341,-0.110,0.145
1342,-0.135,0.150
1343,-0.135,0.115
1344,-0.165,0.110
1345,-0.175,0.105
1346,-0.185,0.100
1347,-0.200,0.105
1348,-0.210,0.090
1349,-0.230,0.075
1350,-0.225,0.065
1351,-0.225,0.070
1352,-0.215,0.090
1353,-0.205,0.105
1354,-0.195,0.105
1355,-0.180,0.095
1356,-0.180,0.085
1357,-0.185,0.105
1358,-0.190,0.110
1359,-0.200,0.110
1360,-0.200,0.100
1361,-0.210,0.070
1362,-0.210,0.075
1363,-0.220,0.070
1364,-0.210,0.100
1365,-0.210,0.120
1366,-0.185,0.115
1367,-0.170,0.090
1368,-0.170,0.075
1369,-0.175,0.080
1370,-0.190,0.085
1371,-0.185,0.075
1372,-0.200,0.060
1373,-0.205,0.045
1374,-0.200,0.055
1375,-0.190,0.075
1376,-0.200,0.075
1377,-0.185,0.090
1378,-0.175,0.070
1379,-0.155,0.055
1380,-0.165,0.045
1381,-0.150,0.050
1382,-0.150,0.055
1383,-0.145,0.040
1384,-0.160,0.030
1385,-0.155,0.020
1386,-0.175,0.025
1387,-0.180,0.030
1388,-0.165,0.030
1389,-0.145,0.025
1390,-0.145,0.025
1391,-0.130,-0.005
1392,-0.115,-0.010
1393,-0.120,0.000
1394,-0.110,0.000
1395,-0.115,-0.005
1396,-0.120,-0.025
1397,-0.110,-0.040
1398,-0.120,-0.035
1399,-0.120,-0.015
1400,-0.115,0.000
1401,-0.115,0.010
1402,-0.110,0.015
1403,-0.105,0.000
1404,-0.095,-0.005
1405,-0.100,-0.005
1406,-0.085,-0.020
1407,-0.085,-0.025
1408,-0.085,-0.050
1409,-0.100,-0.055
1410,-0.115,-0.050
1411,-0.115,-0.015
1412,-0.110,0.005
1413,-0.105,0.010
1414,-0.095,0.010
1415,-0.080,0.005
1416,-0.085,0.005
1417,-0.080,0.015
1418,-0.075,0.030
1419,-0.070,0.025
1420,-0.060,0.025
1421,-0.060,0.030
1422,-0.045,0.050
1423,-0.040,0.085
1424,-0.025,0.110
1425,-0.020,0.125
1426,-0.030,0.130
1427,-0.025,0.120
1428,-0.025,0.130
1429,-0.025,0.130
1430,-0.040,0.155
1431,-0.045,0.140
1432,-0.040,0.135
1433,-0.045,0.135
1434,-0.045,0.120
1435,-0.050,0.150
1436,-0.050,0.170
1437,-0.055,0.175
1438,-0.040,0.165
1439,-0.040,0.165
1440,-0.045,0.155
1441,-0.050,0.165
1442,-0.065,0.170
1443,-0.085,0.185
1444,-0.090,0.170
1445,-0.090,0.150
1446,-0.090,0.130
1447,-0.085,0.135
1448,-0.080,0.155
1449,-0.075,0.165
1450,-0.065,0.170
1451,-0.050,0.150
1452,-0.040,0.150
1453,-0.045,0.150
1454,-0.055,0.155
1455,-0.060,0.175
1456,-0.085,0.155
1457,-0.080,0.145
1458,-0.085,0.130
1459,-0.080,0.140
1460,-0.090,0.160
1461,-0.065,0.160
1462,-0.075,0.170
1463,-0.045,0.155
1464,-0.035,0.145
1465,-0.050,0.150
1466,-0.065,0.155
1467,-0.070,0.165
1468,-0.075,0.145
1469,-0.090,0.140
1470,-0.085,0.130
1471,-0.095,0.145
1472,-0.085,0.160
1473,-0.070,0.190
1474,-0.065,0.180
1475,-0.045,0.160
1476,-0.050,0.145
1477,-0.045,0.160
1478,-0.045,0.155
1479,-0.065,0.145
1480,-0.075,0.145
1481,-0.070,0.150
1482,-0.065,0.145
1483,-0.075,0.170
1484,-0.075,0.185
1485,-0.080,0.180
1486,-0.060,0.155
1487,-0.060,0.155
1488,-0.065,0.160
1489,-0.060,0.170
1490,-0.070,0.180
1491,-0.065,0.170
1492,-0.075,0.155
1493,-0.080,0.150
1494,-0.080,0.150
1495,-0.085,0.170
1496,-0.080,0.180
1497,-0.070,0.175
1498,-0.070,0.165
1499,-0.060,0.170
1500,-0.040,0.185
1501,-0.025,0.200
1502,-0.020,0.200
1503,-0.020,0.205
1504,0.000,0.210
1505,0.000,0.200
1506,0.010,0.220
1507,0.020,0.235
1508,0.035,0.250
1509,0.045,0.240
1510,0.060,0.235
1511,0.080,0.215
1512,0.105,0.210
1513,0.115,0.205
1514,0.105,0.195
1515,0.100,0.170
1516,0.090,0.160
1517,0.075,0.160
1518,0.055,0.170
1519,0.055,0.185
1520,0.050,0.165
1521,0.050,0.155
1522,0.045,0.155
1523,0.035,0.145
1524,0.005,0.160
1525,-0.015,0.170
1526,-0.040,0.155
1527,-0.055,0.145
1528,-0.070,0.140
1529,-0.090,0.140
1530,-0.100,0.150
1531,-0.110,0.155
1532,-0.115,0.150
1533,-0.120,0.145
1534,-0.130,0.130
1535,-0.130,0.125
1536,-0.130,0.145
1537,-0.140,0.160
1538,-0.145,0.160
1539,-0.155,0.145
1540,-0.150,0.135
1541,-0.155,0.120
1542,-0.160,0.135
1543,-0.160,0.155
1544,-0.165,0.180
1545,-0.165,0.175
1546,-0.160,0.150
1547,-0.175,0.140
1548,-0.180,0.135
1549,-0.195,0.135
1550,-0.210,0.130
1551,-0.215,0.110
1552,-0.200,0.105
1553,-0.140,0.105
1554,-0.055,0.110
1555,0.070,0.110
1556,0.250,0.100
1557,0.475,0.075
1558,0.715,0.080
1559,0.965,0.095
1560,1.190,0.190
1561,1.415,0.310
1562,1.525,0.445
1563,1.530,0.570
1564,1.390,0.675
1565,1.140,0.715
1566,0.825,0.680
1567,0.490,0.580
1568,0.210,0.430
1569,-0.010,0.240
1570,-0.150,0.085
1571,-0.225,0.005
1572,-0.245,-0.020
1573,-0.215,0.010
1574,-0.185,0.075
1575,-0.155,0.115
1576,-0.150,0.125
1577,-0.160,0.140
1578,-0.190,0.135
1579,-0.200,0.150
1580,-0.210,0.135
1581,-0.205,0.135
1582,-0.215,0.140
1583,-0.205,0.145
1584,-0.220,0.135
1585,-0.225,0.140
1586,-0.225,0.135
1587,-0.225,0.105
1588,-0.240,0.100
1589,-0.250,0.120
1590,-0.260,0.125
1591,-0.240,0.125
1592,-0.225,0.135
1593,-0.220,0.110
1594,-0.195,0.130
1595,-0.195,0.115
1596,-0.200,0.130
1597,-0.210,0.130
1598,-0.210,0.120
1599,-0.220,0.100
1600,-0.240,0.090
1601,-0.250,0.085
1602,-0.245,0.100
1603,-0.230,0.120
1604,-0.235,0.125
1605,-0.235,0.120
1606,-0.220,0.130
1607,-0.200,0.130
1608,-0.190,0.135
1609,-0.190,0.135
1610,-0.200,0.095
1611,-0.195,0.085
1612,-0.210,0.085
1613,-0.215,0.085
1614,-0.215,0.090
1615,-0.220,0.080
1616,-0.195,0.065
1617,-0.185,0.060
1618,-0.170,0.085
1619,-0.155,0.080
1620,-0.155,0.075
1621,-0.145,0.060
1622,-0.150,0.050
1623,-0.150,0.045
1624,-0.160,0.055
1625,-0.165,0.050
1626,-0.160,0.050
1627,-0.160,0.035
1628,-0.130,0.035
1629,-0.125,0.055
1630,-0.120,0.070
1631,-0.110,0.055
1632,-0.110,0.045
1633,-0.100,0.025
1634,-0.110,0.005
1635,-0.125,-0.010
1636,-0.125,0.005
1637,-0.135,0.010
1638,-0.120,-0.010
1639,-0.110,0.000
1640,-0.110,0.010
1641,-0.110,0.040
1642,-0.105,0.035
1643,-0.105,0.045
1644,-0.100,0.025
1645,-0.105,0.005
1646,-0.115,0.010
1647,-0.115,0.020
1648,-0.125,0.030
1649,-0.110,0.020
1650,-0.100,0.015
1651,-0.090,0.025
1652,-0.095,0.025
1653,-0.070,0.055
1654,-0.065,0.100
1655,-0.045,0.095
1656,-0.025,0.100
1657,-0.025,0.095
1658,-0.015,0.105
1659,-0.025,0.125
1660,-0.030,0.135
1661,-0.045,0.135
1662,-0.040,0.130
1663,-0.040,0.145
1664,-0.050,0.160
1665,-0.040,0.185
1666,-0.035,0.215
1667,-0.020,0.205
1668,-0.020,0.180
1669,-0.030,0.170
1670,-0.040,0.175
1671,-0.070,0.175
1672,-0.065,0.180
1673,-0.075,0.170
1674,-0.070,0.160
1675,-0.070,0.160
1676,-0.075,0.180
1677,-0.080,0.200
1678,-0.070,0.210
1679,-0.055,0.200
1680,-0.045,0.180
1681,-0.040,0.180
1682,-0.050,0.185
1683,-0.050,0.185
1684,-0.050,0.175
1685,-0.050,0.165
1686,-0.050,0.170
1687,-0.055,0.170
1688,-0.055,0.185
1689,-0.050,0.200
1690,-0.040,0.200
1691,-0.035,0.180
1692,-0.035,0.165
1693,-0.035,0.160
1694,-0.040,0.160
1695,-0.055,0.160
1696,-0.045,0.160
1697,-0.040,0.155
1698,-0.040,0.155
1699,-0.045,0.165
1700,-0.045,0.185
1701,-0.035,0.190
1702,-0.025,0.180
1703,-0.020,0.175
1704,-0.025,0.150
1705,-0.030,0.180
1706,-0.035,0.185
1707,-0.035,0.175
1708,-0.040,0.155
1709,-0.045,0.155
1710,-0.035,0.150
1711,-0.040,0.170
1712,-0.030,0.190
1713,-0.020,0.195
1714,-0.025,0.195
1715,-0.025,0.175
1716,-0.020,0.165
1717,-0.025,0.175
1718,-0.025,0.165
1719,-0.030,0.145
1720,-0.035,0.130
1721,-0.035,0.125
1722,-0.040,0.155
1723,-0.045,0.165
1724,-0.050,0.185
1725,-0.050,0.200
1726,-0.050,0.195
1727,-0.040,0.180
1728,-0.045,0.185
1729,-0.040,0.190
1730,-0.050,0.180
1731,-0.035,0.190
1732,-0.040,0.165
1733,-0.030,0.165
1734,-0.015,0.170
1735,-0.005,0.195
1736,0.010,0.205
1737,0.020,0.225
1738,0.025,0.230
1739,0.045,0.225
1740,0.040,0.230
1741,0.045,0.235
1742,0.055,0.245
1743,0.075,0.225
1744,0.070,0.200
1745,0.110,0.190
1746,0.120,0.185
1747,0.130,0.200
1748,0.130,0.205
1749,0.135,0.200
1750,0.140,0.200
1751,0.130,0.190
1752,0.115,0.205
1753,0.115,0.190
1754,0.105,0.175
1755,0.090,0.160
1756,0.065,0.130
1757,0.035,0.115
1758,0.020,0.145
1759,-0.005,0.150
1760,-0.005,0.160
1761,-0.020,0.160
1762,-0.020,0.155
1763,-0.045,0.150
1764,-0.055,0.160
1765,-0.075,0.165
1766,-0.090,0.145
1767,-0.095,0.130
1768,-0.110,0.120
1769,-0.120,0.140
1770,-0.130,0.140
1771,-0.110,0.155
1772,-0.100,0.155
1773,-0.095,0.135
1774,-0.095,0.130
1775,-0.095,0.135
1776,-0.100,0.150
1777,-0.110,0.160
1778,-0.135,0.125
1779,-0.130,0.105
1780,-0.140,0.090
1781,-0.160,0.095
1782,-0.175,0.105
1783,-0.160,0.125
1784,-0.125,0.120
1785,-0.060,0.120
1786,0.045,0.120
1787,0.160,0.115
1788,0.325,0.110
1789,0.520,0.100
1790,0.760,0.095
1791,1.015,0.110
1792,1.255,0.150
1793,1.470,0.255
1794,1.610,0.365
1795,1.645,0.480
1796,1.540,0.585
1797,1.340,0.620
1798,1.035,0.605
1799,0.710,0.515
1800,0.385,0.385
1801,0.125,0.220
1802,-0.065,0.080
1803,-0.175,-0.035
1804,-0.215,-0.075
1805,-0.220,-0.050
1806,-0.175,0.030
1807,-0.135,0.085
1808,-0.115,0.125
1809,-0.110,0.130
1810,-0.110,0.135
1811,-0.140,0.115
1812,-0.165,0.125
1813,-0.175,0.120
1814,-0.190,0.100
1815,-0.195,0.080
1816,-0.205,0.065
1817,-0.215,0.065
1818,-0.225,0.080
1819,-0.230,0.100
1820,-0.215,0.115
1821,-0.220,0.095
1822,-0.210,0.100
1823,-0.195,0.080
1824,-0.200,0.080
1825,-0.200,0.110
1826,-0.195,0.100
1827,-0.195,0.095
1828,-0.205,0.075
1829,-0.205,0.060
1830,-0.215,0.055
1831,-0.220,0.080
1832,-0.205,0.095
1833,-0.205,0.100
1834,-0.215,0.095
1835,-0.195,0.075
1836,-0.205,0.060
1837,-0.195,0.060
1838,-0.200,0.070
1839,-0.195,0.065
1840,-0.200,0.035
1841,-0.205,0.030
1842,-0.200,0.050
1843,-0.210,0.055
1844,-0.205,0.070
1845,-0.195,0.070
1846,-0.185,0.065
1847,-0.185,0.055
1848,-0.195,0.040
1849,-0.185,0.055
1850,-0.185,0.055
1851,-0.185,0.030
1852,-0.190,0.000
1853,-0.190,0.000
1854,-0.200,0.005
1855,-0.200,0.015
1856,-0.170,0.040
1857,-0.155,0.040
1858,-0.160,0.025
1859,-0.145,0.000
1860,-0.140,0.000
1861,-0.140,0.010
1862,-0.135,0.000
1863,-0.155,-0.015
1864,-0.165,-0.035
1865,-0.150,-0.050
1866,-0.150,-0.045
1867,-0.150,-0.020
1868,-0.140,-0.010
1869,-0.130,-0.010
1870,-0.120,-0.015
1871,-0.110,-0.040
1872,-0.110,-0.055
1873,-0.110,-0.055
1874,-0.120,-0.045
1875,-0.125,-0.045
1876,-0.125,-0.045
1877,-0.125,-0.065
1878,-0.125,-0.080
1879,-0.120,-0.065
1880,-0.115,-0.040
1881,-0.115,-0.040
1882,-0.105,-0.040
1883,-0.090,-0.055
1884,-0.095,-0.060
1885,-0.100,-0.065
1886,-0.120,-0.040
1887,-0.120,-0.040
1888,-0.130,-0.045
1889,-0.120,-0.055
1890,-0.120,-0.055
1891,-0.100,-0.020
1892,-0.095,0.010
1893,-0.070,0.035
1894,-0.055,0.050
1895,-0.040,0.040
1896,-0.050,0.045
1897,-0.045,0.070
1898,-0.050,0.070
1899,-0.065,0.090
1900,-0.070,0.080
1901,-0.070,0.065
1902,-0.080,0.060
1903,-0.095,0.075
1904,-0.090,0.085
1905,-0.095,0.110
1906,-0.080,0.110
1907,-0.060,0.110
1908,-0.060,0.090
1909,-0.065,0.095
1910,-0.075,0.105
1911,-0.090,0.115
1912,-0.095,0.110
1913,-0.110,0.095
1914,-0.110,0.075
1915,-0.120,0.085
1916,-0.120,0.110
1917,-0.115,0.125
1918,-0.115,0.150
1919,-0.105,0.130
1920,-0.105,0.110
1921,-0.105,0.090
1922,-0.105,0.095
1923,-0.105,0.095
1924,-0.120,0.110
1925,-0.130,0.095
1926,-0.120,0.080
1927,-0.115,0.075
1928,-0.120,0.075
1929,-0.115,0.100
1930,-0.125,0.115
1931,-0.120,0.120
1932,-0.100,0.095
1933,-0.095,0.095
1934,-0.095,0.090
1935,-0.105,0.100
1936,-0.095,0.110
1937,-0.110,0.100
1938,-0.120,0.085
1939,-0.115,0.080
1940,-0.115,0.060
1941,-0.100,0.090
1942,-0.110,0.095
1943,-0.105,0.110
1944,-0.100,0.095
1945,-0.090,0.090
1946,-0.095,0.080
1947,-0.100,0.095
1948,-0.115,0.100
1949,-0.110,0.090
1950,-0.115,0.080
1951,-0.125,0.075
1952,-0.125,0.060
1953,-0.115,0.080
1954,-0.125,0.110
1955,-0.105,0.115
1956,-0.110,0.115
1957,-0.105,0.095
1958,-0.110,0.075
1959,-0.105,0.075
1960,-0.110,0.085
1961,-0.115,0.100
1962,-0.105,0.095
1963,-0.110,0.085
1964,-0.105,0.085
1965,-0.095,0.100
1966,-0.105,0.115
1967,-0.105,0.130
1968,-0.115,0.110
1969,-0.105,0.085
1970,-0.120,0.075
1971,-0.140,0.070
1972,-0.135,0.090
1973,-0.155,0.100
1974,-0.135,0.105
1975,-0.125,0.110
1976,-0.085,0.110
1977,-0.085,0.125
1978,-0.065,0.155
1979,-0.070,0.165
1980,-0.070,0.160
1981,-0.060,0.150
1982,-0.060,0.120
1983,-0.070,0.130
1984,-0.060,0.140
1985,-0.050,0.150
1986,-0.045,0.165
1987,-0.020,0.160
1988,0.010,0.130
1989,0.040,0.105
1990,0.055,0.120
1991,0.060,0.135
1992,0.055,0.120
1993,0.045,0.115
1994,0.020,0.095
1995,0.010,0.080
1996,0.005,0.065
1997,-0.010,0.095
1998,-0.020,0.085
1999,-0.025,0.085
2000,-0.040,0.080
2001,-0.050,0.055
2002,-0.070,0.070
2003,-0.075,0.070
2004,-0.100,0.090
2005,-0.105,0.105
2006,-0.125,0.090
2007,-0.140,0.060
2008,-0.165,0.055
2009,-0.195,0.050
2010,-0.205,0.060
2011,-0.230,0.075
2012,-0.220,0.075
2013,-0.225,0.050
2014,-0.220,0.050
2015,-0.210,0.060
2016,-0.205,0.080
2017,-0.215,0.085
2018,-0.215,0.075
2019,-0.215,0.055
2020,-0.225,0.025
2021,-0.240,0.015
2022,-0.255,0.040
2023,-0.255,0.045
2024,-0.245,0.075
2025,-0.255,0.060
2026,-0.230,0.060
2027,-0.240,0.045
2028,-0.255,0.030
2029,-0.265,0.030
2030,-0.270,0.045
2031,-0.275,0.065
2032,-0.225,0.060
2033,-0.160,0.050
2034,-0.070,0.035
2035,0.045,0.025
2036,0.215,0.005
2037,0.420,-0.005
2038,0.665,0.010
2039,0.940,0.030
2040,1.200,0.075
2041,1.415,0.170
2042,1.550,0.270
2043,1.560,0.385
2044,1.410,0.470
2045,1.160,0.500
2046,0.830,0.460
2047,0.480,0.345
2048,0.165,0.230
2049,-0.060,0.085
2050,-0.190,-0.020
2051,-0.250,-0.090
2052,-0.265,-0.090
2053,-0.245,-0.070
2054,-0.225,0.005
2055,-0.220,0.045
2056,-0.225,0.065
2057,-0.240,0.055
2058,-0.255,0.050
2059,-0.285,0.030
2060,-0.305,0.040
2061,-0.320,0.055
2062,-0.325,0.060
2063,-0.315,0.050
2064,-0.310,0.040
2065,-0.310,0.030
2066,-0.325,0.050
2067,-0.335,0.070
2068,-0.340,0.055
2069,-0.350,0.030
2070,-0.345,0.030
2071,-0.350,0.010
2072,-0.335,0.040
2073,-0.330,0.050
2074,-0.320,0.060
2075,-0.310,0.060
2076,-0.300,0.035
2077,-0.310,0.035
2078,-0.315,0.030
2079,-0.330,0.020
2080,-0.340,0.025
2081,-0.330,0.015
2082,-0.340,0.000
2083,-0.340,0.005
2084,-0.325,0.020
2085,-0.320,0.040
2086,-0.305,0.055
2087,-0.300,0.060
2088,-0.305,0.030
2089,-0.305,0.020
2090,-0.305,0.000
2091,-0.315,0.015
2092,-0.320,0.010
2093,-0.330,0.010
2094,-0.335,-0.015
2095,-0.320,-0.020
2096,-0.315,-0.015
2097,-0.305,-0.005
2098,-0.290,0.025
2099,-0.275,0.025
2100,-0.270,0.000
2101,-0.265,-0.020
2102,-0.265,-0.040
2103,-0.275,-0.040
2104,-0.285,-0.020
2105,-0.300,-0.020
2106,-0.305,-0.025
2107,-0.290,-0.045
2108,-0.285,-0.045
2109,-0.265,-0.045
2110,-0.265,-0.030
2111,-0.250,-0.030
2112,-0.250,-0.035
2113,-0.250,-0.055
2114,-0.235,-0.075
2115,-0.250,-0.100
2116,-0.235,-0.110
2117,-0.250,-0.090
2118,-0.240,-0.075
2119,-0.245,-0.075
2120,-0.245,-0.085
2121,-0.220,-0.100
2122,-0.210,-0.085
2123,-0.210,-0.075
2124,-0.205,-0.070
2125,-0.210,-0.075
2126,-0.215,-0.095
2127,-0.215,-0.110
2128,-0.215,-0.120
2129,-0.210,-0.105
2130,-0.210,-0.095
2131,-0.225,-0.080
2132,-0.215,-0.080
2133,-0.220,-0.085
2134,-0.215,-0.080
2135,-0.200,-0.075
2136,-0.195,-0.045
2137,-0.190,-0.045
2138,-0.190,-0.050
2139,-0.195,-0.060
2140,-0.205,-0.065
2141,-0.175,-0.080
2142,-0.185,-0.055
2143,-0.175,-0.020
2144,-0.165,-0.005
2145,-0.165,0.000
2146,-0.170,0.000
2147,-0.150,0.015
2148,-0.160,0.015
2149,-0.150,0.055
2150,-0.155,0.065
2151,-0.165,0.060
2152,-0.165,0.045
2153,-0.170,0.035
2154,-0.185,0.045
2155,-0.180,0.070
2156,-0.160,0.085
2157,-0.150,0.100
2158,-0.150,0.100
2159,-0.155,0.085
2160,-0.155,0.075
2161,-0.170,0.070
2162,-0.165,0.060
2163,-0.175,0.080
2164,-0.185,0.060
2165,-0.190,0.050
2166,-0.205,0.045
2167,-0.195,0.035
2168,-0.200,0.055
2169,-0.190,0.075
2170,-0.180,0.085
2171,-0.160,0.080
2172,-0.165,0.070
2173,-0.165,0.055
2174,-0.180,0.055
2175,-0.190,0.060
2176,-0.190,0.075
2177,-0.190,0.075
2178,-0.180,0.075
2179,-0.185,0.060
2180,-0.205,0.055
2181,-0.185,0.075
2182,-0.190,0.080
2183,-0.175,0.090
2184,-0.185,0.060
2185,-0.180,0.060
2186,-0.180,0.050
2187,-0.180,0.055
2188,-0.175,0.055
2189,-0.190,0.065
2190,-0.190,0.055
2191,-0.200,0.045
2192,-0.195,0.030
2193,-0.185,0.045
2194,-0.170,0.070
2195,-0.175,0.105
2196,-0.170,0.100
2197,-0.165,0.075
2198,-0.165,0.055
2199,-0.175,0.050
2200,-0.170,0.040
2201,-0.180,0.050
2202,-0.190,0.060
2203,-0.180,0.055
2204,-0.175,0.055
2205,-0.190,0.055
2206,-0.180,0.065
2207,-0.180,0.075
2208,-0.175,0.075
2209,-0.175,0.060
2210,-0.175,0.050
2211,-0.180,0.035
2212,-0.180,0.045
2213,-0.175,0.065
2214,-0.170,0.065
2215,-0.175,0.055
2216,-0.185,0.045
2217,-0.185,0.050
2218,-0.205,0.065
2219,-0.185,0.085
2220,-0.205,0.085
2221,-0.200,0.065
2222,-0.190,0.050
2223,-0.180,0.035
2224,-0.190,0.045
2225,-0.180,0.065
2226,-0.165,0.070
2227,-0.160,0.075
2228,-0.135,0.075
2229,-0.130,0.090
2230,-0.110,0.095
2231,-0.105,0.135
2232,-0.105,0.135
2233,-0.085,0.125
2234,-0.090,0.110
2235,-0.090,0.090
2236,-0.085,0.095
2237,-0.080,0.105
2238,-0.055,0.105
2239,-0.025,0.095
2240,-0.005,0.075
2241,0.010,0.080
2242,0.000,0.075
2243,-0.010,0.085
2244,-0.030,0.060
2245,-0.040,0.055
2246,-0.035,0.035
2247,-0.045,0.025
2248,-0.055,0.010
2249,-0.075,0.020
2250,-0.085,0.020
2251,-0.105,0.015
2252,-0.110,0.005
2253,-0.130,0.020
2254,-0.155,0.040
2255,-0.165,0.055
2256,-0.180,0.055
2257,-0.195,0.040
2258,-0.220,0.025
2259,-0.230,0.025
2260,-0.255,0.010
2261,-0.270,0.025
2262,-0.280,0.035
2263,-0.275,0.025
2264,-0.270,0.010
2265,-0.260,0.020
2266,-0.250,0.020
2267,-0.250,0.040
2268,-0.260,0.035
2269,-0.260,0.035
2270,-0.265,0.015
2271,-0.285,0.015
2272,-0.290,0.005
2273,-0.290,0.010
2274,-0.300,0.035
2275,-0.305,-0.010
2276,-0.315,-0.015
2277,-0.330,-0.040
2278,-0.305,-0.045
2279,-0.285,-0.010
2280,-0.235,0.020
2281,-0.150,0.015
2282,-0.040,-0.005
2283,0.115,-0.050
2284,0.305,-0.070
2285,0.530,-0.075
2286,0.790,-0.030
2287,1.045,0.045
2288,1.275,0.135
2289,1.430,0.255
2290,1.460,0.385
2291,1.340,0.490
2292,1.080,0.535
2293,0.760,0.495
2294,0.415,0.375
2295,0.120,0.205
2296,-0.120,0.055
2297,-0.270,-0.070
2298,-0.335,-0.125
2299,-0.345,-0.135
2300,-0.320,-0.115
2301,-0.280,-0.055
2302,-0.255,0.000
2303,-0.250,0.055
2304,-0.265,0.065
2305,-0.275,0.045
2306,-0.305,0.015
2307,-0.320,0.000
2308,-0.355,-0.015
2309,-0.355,-0.010
2310,-0.370,-0.030
2311,-0.360,-0.030
2312,-0.345,-0.025
2313,-0.345,-0.025
2314,-0.360,0.000
2315,-0.360,0.015
2316,-0.350,0.015
2317,-0.345,-0.010
2318,-0.360,-0.025
2319,-0.355,-0.050
2320,-0.365,-0.025
2321,-0.370,-0.015
2322,-0.370,0.005
2323,-0.370,-0.005
2324,-0.365,-0.020
2325,-0.360,-0.015
2326,-0.355,-0.010
2327,-0.350,0.010
2328,-0.345,0.005
2329,-0.340,-0.005
2330,-0.330,-0.040
2331,-0.335,-0.040
2332,-0.340,-0.040
2333,-0.340,-0.025
2334,-0.355,-0.040
2335,-0.345,-0.045
2336,-0.335,-0.050
2337,-0.335,-0.035
2338,-0.350,-0.025
2339,-0.330,-0.010
2340,-0.330,-0.020
2341,-0.330,-0.030
2342,-0.320,-0.045
2343,-0.320,-0.055
2344,-0.335,-0.065
2345,-0.335,-0.055
2346,-0.325,-0.060
2347,-0.320,-0.080
2348,-0.315,-0.080
2349,-0.310,-0.085
2350,-0.300,-0.075
2351,-0.290,-0.065
2352,-0.295,-0.080
2353,-0.295,-0.095
2354,-0.290,-0.120
2355,-0.285,-0.105
2356,-0.285,-0.110
2357,-0.285,-0.105
2358,-0.290,-0.105
2359,-0.285,-0.120
2360,-0.265,-0.115
2361,-0.255,-0.115
2362,-0.245,-0.085
2363,-0.235,-0.090
2364,-0.235,-0.105
2365,-0.235,-0.125
2366,-0.240,-0.140
2367,-0.245,-0.140
2368,-0.240,-0.120
2369,-0.240,-0.120
2370,-0.235,-0.130
2371,-0.230,-0.140
2372,-0.225,-0.140
2373,-0.235,-0.125
2374,-0.220,-0.105
2375,-0.225,-0.095
2376,-0.230,-0.105
2377,-0.230,-0.115
2378,-0.220,-0.130
2379,-0.245,-0.115
2380,-0.235,-0.120
2381,-0.240,-0.105
2382,-0.225,-0.105
2383,-0.210,-0.115
2384,-0.200,-0.095
2385,-0.180,-0.065
2386,-0.170,-0.030
2387,-0.155,0.000
2388,-0.140,0.000
2389,-0.135,-0.005
2390,-0.150,-0.025
2391,-0.155,-0.025
2392,-0.165,0.000
2393,-0.175,0.005
2394,-0.180,0.005
2395,-0.170,0.010
2396,-0.170,0.005
2397,-0.170,0.030
2398,-0.160,0.035
2399,-0.155,0.040
2400,-0.160,0.040
2401,-0.160,0.030
2402,-0.165,0.020
2403,-0.180,0.020
2404,-0.195,0.010
2405,-0.200,0.035
2406,-0.210,0.050
2407,-0.205,0.025
2408,-0.210,0.030
2409,-0.205,0.015
2410,-0.200,0.030
2411,-0.185,0.035
2412,-0.185,0.055
2413,-0.175,0.035
2414,-0.180,0.020
2415,-0.190,0.000
2416,-0.200,-0.010
2417,-0.205,0.020
2418,-0.230,0.020
2419,-0.210,0.010
2420,-0.210,0.010
2421,-0.200,0.015
2422,-0.200,0.020
2423,-0.185,0.040
2424,-0.180,0.040
2425,-0.190,0.030
2426,-0.170,0.020
2427,-0.180,0.005
2428,-0.185,0.000
2429,-0.200,0.015
2430,-0.205,0.045
2431,-0.205,0.040
2432,-0.195,0.030
2433,-0.195,0.020
2434,-0.190,0.020
2435,-0.185,0.045
2436,-0.185,0.055
2437,-0.175,0.060
2438,-0.165,0.040
2439,-0.170,0.015
2440,-0.170,0.010
2441,-0.190,0.020
2442,-0.195,0.035
2443,-0.210,0.030
2444,-0.200,0.035
2445,-0.190,0.020
2446,-0.190,0.035
2447,-0.190,0.065
2448,-0.180,0.065
2449,-0.180,0.065
2450,-0.190,0.050
2451,-0.195,0.035
2452,-0.190,0.020
2453,-0.200,0.025
2454,-0.205,0.030
2455,-0.200,0.040
2456,-0.200,0.045
2457,-0.190,0.030
2458,-0.180,0.025
2459,-0.165,0.035
2460,-0.185,0.050
2461,-0.195,0.045
2462,-0.185,0.035
2463,-0.180,0.015
2464,-0.175,0.010
2465,-0.170,0.025
2466,-0.165,0.055
2467,-0.170,0.085
2468,-0.165,0.095
2469,-0.145,0.100
2470,-0.120,0.090
2471,-0.110,0.110
2472,-0.110,0.110
2473,-0.120,0.120
2474,-0.110,0.100
2475,-0.110,0.080
2476,-0.095,0.055
2477,-0.070,0.045
2478,-0.045,0.050
2479,-0.030,0.060
2480,-0.015,0.060
2481,-0.005,0.055
2482,0.000,0.045
2483,-0.010,0.045
2484,-0.010,0.050
2485,-0.010,0.055
2486,-0.030,0.050
2487,-0.040,0.020
2488,-0.055,-0.005
2489,-0.080,-0.015
2490,-0.110,0.010
2491,-0.125,0.020
2492,-0.150,0.025
2493,-0.160,0.025
2494,-0.160,0.020
2495,-0.160,0.025
2496,-0.185,0.025
2497,-0.190,0.035
2498,-0.215,0.015
2499,-0.235,-0.005
2500,-0.225,-0.020
2501,-0.240,-0.020
2502,-0.265,-0.010
2503,-0.265,0.015
2504,-0.260,0.015
2505,-0.260,0.010
2506,-0.250,-0.005
2507,-0.245,-0.010
2508,-0.245,0.010
2509,-0.240,0.025
2510,-0.245,0.020
2511,-0.255,-0.020
2512,-0.260,-0.030
2513,-0.270,-0.025
2514,-0.285,-0.025
2515,-0.300,-0.030
2516,-0.310,-0.020
2517,-0.305,-0.025
2518,-0.260,-0.015
2519,-0.185,-0.010
2520,-0.090,-0.005
2521,0.065,-0.030
2522,0.270,-0.055
2523,0.480,-0.090
2524,0.725,-0.065
2525,0.975,-0.005
2526,1.210,0.105
2527,1.395,0.250
2528,1.450,0.395
2529,1.395,0.500
2530,1.195,0.585
2531,0.910,0.580
2532,0.555,0.495
2533,0.250,0.335
2534,-0.020,0.150
2535,-0.210,-0.035
2536,-0.320,-0.145
2537,-0.370,-0.160
2538,-0.345,-0.145
2539,-0.310,-0.085
2540,-0.265,-0.045
2541,-0.240,-0.015
2542,-0.240,0.010
2543,-0.240,0.025
2544,-0.275,0.030
2545,-0.300,0.010
2546,-0.320,-0.020
2547,-0.320,-0.035
2548,-0.320,-0.045
2549,-0.320,-0.040
2550,-0.315,-0.020
2551,-0.315,-0.010
2552,-0.315,-0.010
2553,-0.325,-0.015
2554,-0.335,-0.010
2555,-0.325,0.000
2556,-0.325,0.000
2557,-0.325,-0.010
2558,-0.320,-0.025
2559,-0.310,-0.040
2560,-0.315,-0.035
2561,-0.315,-0.015
2562,-0.310,-0.020
2563,-0.320,-0.035
2564,-0.320,-0.045
2565,-0.310,-0.035
2566,-0.315,-0.015
2567,-0.305,-0.010
2568,-0.305,-0.015
2569,-0.295,-0.015
2570,-0.305,-0.030
2571,-0.295,-0.035
2572,-0.300,-0.040
2573,-0.295,-0.045
2574,-0.295,-0.050
2575,-0.290,-0.065
2576,-0.295,-0.055
2577,-0.285,-0.040
2578,-0.290,-0.035
2579,-0.290,-0.035
2580,-0.270,-0.055
2581,-0.270,-0.065
2582,-0.260,-0.070
2583,-0.260,-0.080
2584,-0.250,-0.080
2585,-0.250,-0.105
2586,-0.255,-0.120
2587,-0.265,-0.105
2588,-0.250,-0.085
2589,-0.250,-0.075
2590,-0.240,-0.065
2591,-0.235,-0.060
2592,-0.220,-0.095
2593,-0.230,-0.095
2594,-0.215,-0.090
2595,-0.215,-0.100
2596,-0.215,-0.110
2597,-0.215,-0.140
2598,-0.210,-0.160
2599,-0.205,-0.155
2600,-0.200,-0.140
2601,-0.200,-0.120
2602,-0.205,-0.130
2603,-0.190,-0.125
2604,-0.190,-0.130
2605,-0.185,-0.135
2606,-0.185,-0.130
2607,-0.190,-0.120
2608,-0.190,-0.145
2609,-0.190,-0.145
2610,-0.195,-0.130
2611,-0.195,-0.120
2612,-0.185,-0.105
2613,-0.185,-0.105
2614,-0.180,-0.110
2615,-0.165,-0.115
2616,-0.155,-0.105
2617,-0.150,-0.075
2618,-0.140,-0.080
2619,-0.140,-0.060
2620,-0.130,-0.070
2621,-0.120,-0.065
2622,-0.115,-0.050
2623,-0.110,-0.030
2624,-0.095,-0.005
2625,-0.090,-0.005
2626,-0.080,0.015
2627,-0.075,0.010
2628,-0.080,0.020
2629,-0.085,0.055
2630,-0.095,0.060
2631,-0.105,0.035
2632,-0.110,0.030
2633,-0.120,0.020
2634,-0.125,0.025
2635,-0.120,0.045
2636,-0.115,0.045
2637,-0.120,0.030
2638,-0.110,0.025
2639,-0.090,0.030
2640,-0.100,0.050
2641,-0.110,0.050
2642,-0.115,0.060
2643,-0.120,0.045
2644,-0.130,0.025
2645,-0.135,0.030
2646,-0.145,0.040
2647,-0.140,0.030
2648,-0.130,0.035
2649,-0.120,0.035
2650,-0.100,0.045
2651,-0.100,0.055
2652,-0.100,0.050
2653,-0.105,0.050
2654,-0.100,0.030
2655,-0.105,0.030
2656,-0.110,0.020
2657,-0.120,0.030
2658,-0.125,0.035
2659,-0.130,0.020
2660,-0.125,0.020
2661,-0.120,0.030
2662,-0.100,0.050
2663,-0.085,0.065
2664,-0.085,0.050
2665,-0.085,0.035
2666,-0.070,0.020
2667,-0.110,0.020
2668,-0.105,0.035
2669,-0.115,0.040
2670,-0.115,0.030
2671,-0.105,0.025
2672,-0.105,0.025
2673,-0.090,0.030
2674,-0.080,0.050
2675,-0.075,0.050
2676,-0.065,0.055
2677,-0.070,0.040
2678,-0.070,0.020
2679,-0.080,0.030
2680,-0.095,0.035
2681,-0.105,0.030
2682,-0.100,0.025
2683,-0.125,0.005
2684,-0.120,0.015
2685,-0.120,0.030
2686,-0.110,0.065
2687,-0.085,0.055
2688,-0.085,0.055
2689,-0.100,0.045
2690,-0.100,0.040
2691,-0.100,0.055
2692,-0.110,0.045
2693,-0.110,0.045
2694,-0.095,0.035
2695,-0.090,0.020
2696,-0.080,0.040
2697,-0.050,0.070
2698,-0.050,0.110
2699,-0.025,0.125
2700,-0.025,0.120
2701,-0.015,0.105
2702,-0.015,0.085
2703,-0.010,0.075
2704,-0.020,0.100
2705,-0.010,0.095
2706,-0.005,0.075
2707,0.030,0.055
2708,0.045,0.025
2709,0.045,0.050
2710,0.050,0.070
2711,0.045,0.085
2712,0.050,0.090
2713,0.050,0.070
2714,0.065,0.035
2715,0.060,0.030
2716,0.050,0.030
2717,0.040,0.040
2718,0.015,0.030
2719,0.000,0.010
2720,-0.030,0.010
2721,-0.045,0.015
2722,-0.065,0.035
2723,-0.090,0.060
2724,-0.100,0.055
2725,-0.125,0.030
2726,-0.135,0.000
2727,-0.165,-0.015
2728,-0.160,0.000
2729,-0.180,0.000
2730,-0.185,0.005
2731,-0.190,0.000
2732,-0.175,0.005
2733,-0.170,-0.005
2734,-0.175,0.005
2735,-0.185,0.030
2736,-0.180,0.035
2737,-0.180,0.040
2738,-0.170,0.005
2739,-0.185,-0.010
2740,-0.190,-0.015
2741,-0.205,-0.015
2742,-0.205,-0.005
2743,-0.210,0.005
2744,-0.195,0.005
2745,-0.195,-0.010
2746,-0.195,-0.030
2747,-0.195,-0.010
2748,-0.195,0.010
2749,-0.155,0.030
2750,-0.085,0.030
2751,0.020,0.000
2752,0.155,-0.030
2753,0.330,-0.040
2754,0.535,-0.050
2755,0.770,-0.020
2756,1.040,0.035
2757,1.285,0.095
2758,1.480,0.200
2759,1.585,0.305
2760,1.545,0.415
2761,1.395,0.485
2762,1.135,0.515
2763,0.820,0.445
2764,0.510,0.315
2765,0.215,0.175
2766,-0.020,0.050
2767,-0.160,-0.060
2768,-0.250,-0.120
2769,-0.255,-0.135
2770,-0.255,-0.115
2771,-0.210,-0.075
2772,-0.165,-0.005
2773,-0.165,0.040
2774,-0.180,0.055
2775,-0.210,0.020
2776,-0.240,-0.020
2777,-0.290,-0.035
2778,-0.310,-0.020
2779,-0.325,-0.005
2780,-0.310,0.005
2781,-0.315,0.010
2782,-0.295,0.010
2783,-0.275,0.000
2784,-0.270,-0.010
2785,-0.270,-0.010
2786,-0.280,-0.010
2787,-0.290,-0.020
2788,-0.305,-0.035
2789,-0.305,-0.045
2790,-0.310,-0.030
2791,-0.310,-0.015
2792,-0.320,-0.005
2793,-0.310,-0.015
2794,-0.305,-0.020
2795,-0.300,-0.020
2796,-0.305,-0.005
2797,-0.300,0.000
2798,-0.305,-0.010
2799,-0.285,-0.030
2800,-0.285,-0.045
2801,-0.300,-0.045
2802,-0.305,-0.030
2803,-0.310,-0.030
2804,-0.310,-0.030
2805,-0.315,-0.040
2806,-0.310,-0.035
2807,-0.300,-0.045
2808,-0.300,-0.035
2809,-0.295,-0.040
2810,-0.290,-0.060
2811,-0.295,-0.065
2812,-0.290,-0.085
2813,-0.295,-0.075
2814,-0.295,-0.065
2815,-0.300,-0.070
2816,-0.295,-0.060
2817,-0.285,-0.070
2818,-0.285,-0.065
2819,-0.285,-0.050
2820,-0.265,-0.055
2821,-0.260,-0.060
2822,-0.250,-0.100
2823,-0.250,-0.110
2824,-0.260,-0.135
2825,-0.255,-0.120
2826,-0.265,-0.130
2827,-0.265,-0.145
2828,-0.255,-0.150
2829,-0.240,-0.145
2830,-0.235,-0.115
2831,-0.230,-0.100
2832,-0.220,-0.105
2833,-0.225,-0.120
2834,-0.230,-0.145
2835,-0.235,-0.150
2836,-0.250,-0.145
2837,-0.225,-0.140
2838,-0.225,-0.140
2839,-0.215,-0.145
2840,-0.225,-0.150
2841,-0.205,-0.135
2842,-0.225,-0.125
2843,-0.220,-0.120
2844,-0.210,-0.125
2845,-0.215,-0.150
2846,-0.205,-0.155
2847,-0.220,-0.130
2848,-0.225,-0.135
2849,-0.220,-0.120
2850,-0.205,-0.135
2851,-0.195,-0.130
2852,-0.185,-0.125
2853,-0.175,-0.100
2854,-0.165,-0.060
2855,-0.165,-0.040
2856,-0.160,-0.030
2857,-0.160,-0.020
2858,-0.175,-0.025
2859,-0.170,-0.005
2860,-0.180,-0.005
2861,-0.185,0.005
2862,-0.190,-0.010
2863,-0.170,-0.015
2864,-0.165,-0.005
2865,-0.160,0.015
2866,-0.160,0.040
2867,-0.180,0.040
2868,-0.185,0.025
2869,-0.195,0.000
2870,-0.190,0.000
2871,-0.200,0.005
2872,-0.210,0.010
2873,-0.210,0.010
2874,-0.215,-0.005
2875,-0.205,-0.005
2876,-0.210,0.000
2877,-0.185,0.020
2878,-0.190,0.040
2879,-0.175,0.035
2880,-0.185,0.015
2881,-0.185,0.000
2882,-0.200,0.015
2883,-0.210,0.010
2884,-0.220,0.015
2885,-0.230,0.015
2886,-0.220,0.000
2887,-0.230,-0.010
2888,-0.230,0.000
2889,-0.210,0.020
2890,-0.200,0.035
2891,-0.190,0.030
2892,-0.180,0.020
2893,-0.185,0.005
2894,-0.190,0.005
2895,-0.210,-0.005
2896,-0.205,0.005
2897,-0.235,-0.005
2898,-0.220,-0.015
2899,-0.215,-0.005
2900,-0.210,0.010
2901,-0.210,0.035
2902,-0.190,0.055
2903,-0.180,0.035
2904,-0.175,0.020
2905,-0.175,-0.005
2906,-0.190,-0.005
2907,-0.195,-0.005
2908,-0.205,0.000
2909,-0.220,-0.015
2910,-0.225,-0.025
2911,-0.215,-0.025
2912,-0.220,-0.005
2913,-0.215,0.015
2914,-0.215,0.030
2915,-0.200,0.015
2916,-0.200,0.010
2917,-0.185,0.015
2918,-0.200,0.010
2919,-0.215,0.035
2920,-0.215,0.020
2921,-0.225,0.005
2922,-0.225,-0.025
2923,-0.230,-0.025
2924,-0.240,-0.025
2925,-0.225,0.000
2926,-0.210,0.030
2927,-0.200,0.020
2928,-0.185,0.020
2929,-0.180,0.010
2930,-0.180,0.030
2931,-0.180,0.035
2932,-0.180,0.040
2933,-0.175,0.035
2934,-0.175,0.040
2935,-0.165,0.045
2936,-0.165,0.065
2937,-0.160,0.090
2938,-0.150,0.095
2939,-0.135,0.075
2940,-0.115,0.060
2941,-0.095,0.055
2942,-0.065,0.045
2943,-0.050,0.045
2944,-0.050,0.035
2945,-0.060,0.015
2946,-0.065,-0.020
2947,-0.075,-0.020
2948,-0.090,0.000
2949,-0.090,0.010
2950,-0.100,0.020
2951,-0.080,0.010
2952,-0.075,-0.010
2953,-0.095,-0.005
2954,-0.110,-0.020
2955,-0.135,-0.005
2956,-0.160,-0.025
2957,-0.190,-0.020
2958,-0.215,-0.025
2959,-0.240,0.000
2960,-0.245,0.015
2961,-0.260,0.015
2962,-0.270,0.005
2963,-0.275,-0.015
2964,-0.275,-0.040
2965,-0.280,-0.045
2966,-0.285,-0.025
2967,-0.300,-0.030
2968,-0.300,-0.015
2969,-0.305,-0.035
2970,-0.300,-0.045
2971,-0.320,-0.055
2972,-0.320,-0.025
2973,-0.320,-0.005
2974,-0.315,0.005
2975,-0.315,0.000
2976,-0.310,-0.015
2977,-0.315,-0.035
2978,-0.315,-0.020
2979,-0.330,-0.030
2980,-0.355,-0.030
2981,-0.360,-0.050
2982,-0.365,-0.050
2983,-0.340,-0.040
2984,-0.280,-0.025
2985,-0.190,-0.020
2986,-0.075,-0.020
2987,0.075,-0.050
2988,0.270,-0.090
2989,0.490,-0.100
2990,0.730,-0.075
2991,0.980,-0.025
2992,1.195,0.050
2993,1.375,0.135
2994,1.445,0.230
2995,1.365,0.325
2996,1.200,0.400
2997,0.920,0.435
2998,0.625,0.395
2999,0.330,0.285
3000,0.055,0.135
3001,-0.145,-0.025
3002,-0.290,-0.135
3003,-0.355,-0.175
3004,-0.385,-0.175
3005,-0.370,-0.125
3006,-0.350,-0.080
3007,-0.325,-0.055
3008,-0.330,-0.040
3009,-0.335,-0.035
3010,-0.350,-0.015
3011,-0.370,-0.010
3012,-0.380,-0.010
3013,-0.390,-0.035
3014,-0.395,-0.055
3015,-0.410,-0.045
3016,-0.420,-0.045
3017,-0.430,-0.040
3018,-0.430,-0.035
3019,-0.430,-0.065
3020,-0.420,-0.060
3021,-0.415,-0.070
3022,-0.415,-0.030
3023,-0.410,-0.015
3024,-0.400,-0.005
3025,-0.405,-0.010
3026,-0.410,-0.040
3027,-0.415,-0.045
3028,-0.415,-0.055
3029,-0.430,-0.055
3030,-0.440,-0.050
3031,-0.435,-0.055
3032,-0.430,-0.080
3033,-0.420,-0.075
3034,-0.420,-0.055
3035,-0.410,-0.035
3036,-0.405,-0.030
3037,-0.390,-0.050
3038,-0.385,-0.075
3039,-0.395,-0.080
3040,-0.400,-0.070
3041,-0.415,-0.085
3042,-0.420,-0.070
3043,-0.425,-0.065
3044,-0.420,-0.080
3045,-0.400,-0.070
3046,-0.410,-0.065
3047,-0.395,-0.050
3048,-0.390,-0.040
3049,-0.390,-0.055
3050,-0.380,-0.095
3051,-0.390,-0.115
3052,-0.385,-0.125
3053,-0.385,-0.105
3054,-0.385,-0.110
3055,-0.385,-0.100
3056,-0.385,-0.110
3057,-0.385,-0.125
3058,-0.385,-0.115
3059,-0.375,-0.115
3060,-0.375,-0.105
3061,-0.365,-0.115
3062,-0.355,-0.140
3063,-0.365,-0.160
3064,-0.355,-0.170
3065,-0.355,-0.170
3066,-0.355,-0.155
3067,-0.350,-0.160
3068,-0.345,-0.165
3069,-0.335,-0.180
3070,-0.335,-0.165
3071,-0.335,-0.150
3072,-0.330,-0.155
3073,-0.320,-0.170
3074,-0.325,-0.185
3075,-0.320,-0.200
3076,-0.330,-0.205
3077,-0.325,-0.190
3078,-0.330,-0.185
3079,-0.335,-0.180
3080,-0.325,-0.185
3081,-0.315,-0.185
3082,-0.310,-0.160
3083,-0.305,-0.145
3084,-0.305,-0.145
3085,-0.305,-0.145
3086,-0.300,-0.150
3087,-0.305,-0.155
3088,-0.310,-0.145
3089,-0.300,-0.140
3090,-0.300,-0.125
3091,-0.290,-0.130
3092,-0.275,-0.130
3093,-0.265,-0.115
3094,-0.255,-0.075
3095,-0.265,-0.050
3096,-0.245,-0.030
3097,-0.255,-0.025
3098,-0.260,-0.040
3099,-0.265,-0.055
3100,-0.275,-0.040
3101,-0.290,-0.030
3102,-0.285,-0.010
3103,-0.285,-0.020
3104,-0.275,-0.030
3105,-0.280,-0.015
3106,-0.275,0.000
3107,-0.280,0.010
3108,-0.285,0.015
3109,-0.290,-0.005
3110,-0.285,-0.030
3111,-0.305,-0.030
3112,-0.310,-0.015
3113,-0.315,-0.015
3114,-0.305,-0.025
3115,-0.295,-0.035
3116,-0.295,-0.035
3117,-0.295,-0.030
3118,-0.295,-0.010
3119,-0.295,0.010
3120,-0.305,0.005
3121,-0.300,-0.010
3122,-0.295,-0.015
3123,-0.305,-0.020
3124,-0.305,-0.015
3125,-0.320,-0.025
3126,-0.325,-0.040
3127,-0.325,-0.050
3128,-0.310,-0.040
3129,-0.295,-0.010
3130,-0.295,0.005
3131,-0.290,-0.005
3132,-0.290,-0.010
3133,-0.285,-0.020
3134,-0.290,-0.030
3135,-0.295,-0.015
3136,-0.310,-0.020
3137,-0.320,-0.025
3138,-0.315,-0.030
3139,-0.320,-0.035
3140,-0.325,-0.020
3141,-0.295,-0.010
3142,-0.295,0.000
3143,-0.300,-0.020
3144,-0.280,-0.020
3145,-0.290,-0.020
3146,-0.290,-0.015
3147,-0.295,0.000
3148,-0.320,-0.010
3149,-0.315,-0.030
3150,-0.310,-0.035
3151,-0.310,-0.030
3152,-0.305,-0.025
3153,-0.300,-0.020
3154,-0.290,-0.010
3155,-0.280,-0.005
3156,-0.275,-0.020
3157,-0.285,-0.010
3158,-0.285,-0.010
3159,-0.310,-0.005
3160,-0.310,-0.025
3161,-0.315,-0.030
3162,-0.320,-0.050
3163,-0.320,-0.030
3164,-0.310,0.000
3165,-0.290,0.015
3166,-0.275,0.020
3167,-0.250,0.015
3168,-0.240,0.035
3169,-0.235,0.050
3170,-0.225,0.060
3171,-0.230,0.050
3172,-0.230,0.030
3173,-0.240,0.025
3174,-0.235,0.015
3175,-0.225,0.020
3176,-0.190,0.010
3177,-0.160,0.005
3178,-0.140,0.005
3179,-0.115,-0.005
3180,-0.115,-0.010
3181,-0.125,0.005
3182,-0.140,-0.005
3183,-0.150,-0.015
3184,-0.170,-0.035
3185,-0.175,-0.030
3186,-0.205,-0.045
3187,-0.220,-0.040
3188,-0.230,-0.025
3189,-0.240,-0.030
3190,-0.245,-0.045
3191,-0.260,-0.030
3192,-0.270,-0.030
3193,-0.285,-0.015
3194,-0.310,-0.005
3195,-0.325,-0.035
3196,-0.345,-0.060
3197,-0.375,-0.070
3198,-0.390,-0.055
3199,-0.400,-0.040
3200,-0.405,-0.045
3201,-0.390,-0.030
3202,-0.395,-0.040
3203,-0.375,-0.040
3204,-0.370,-0.030
3205,-0.375,-0.020
3206,-0.370,-0.025
3207,-0.380,-0.050
3208,-0.390,-0.075
3209,-0.400,-0.080
3210,-0.400,-0.065
3211,-0.410,-0.055
3212,-0.420,-0.070
3213,-0.420,-0.075
3214,-0.425,-0.090
3215,-0.440,-0.095
3216,-0.420,-0.085
3217,-0.385,-0.055
3218,-0.310,-0.055
3219,-0.210,-0.075
3220,-0.060,-0.110
3221,0.115,-0.135
3222,0.335,-0.130
3223,0.590,-0.085
3224,0.855,-0.020
3225,1.105,0.065
3226,1.275,0.180
3227,1.350,0.305
3228,1.270,0.425
3229,1.070,0.505
3230,0.775,0.485
3231,0.440,0.375
3232,0.130,0.215
3233,-0.135,0.040
3234,-0.320,-0.100
3235,-0.425,-0.170
3236,-0.445,-0.185
3237,-0.435,-0.180
3238,-0.400,-0.125
3239,-0.365,-0.075
3240,-0.350,-0.020
3241,-0.360,-0.010
3242,-0.395,-0.015
3243,-0.430,-0.035
3244,-0.450,-0.080
3245,-0.475,-0.080
3246,-0.480,-0.060
3247,-0.480,-0.045
3248,-0.470,-0.045
3249,-0.455,-0.055
3250,-0.440,-0.065
3251,-0.445,-0.085
3252,-0.450,-0.070
3253,-0.465,-0.050
3254,-0.465,-0.040
3255,-0.460,-0.050
3256,-0.470,-0.080
3257,-0.475,-0.080
3258,-0.480,-0.080
3259,-0.485,-0.070
3260,-0.485,-0.060
3261,-0.480,-0.080
3262,-0.480,-0.065
3263,-0.460,-0.075
3264,-0.445,-0.065
3265,-0.455,-0.060
3266,-0.450,-0.055
3267,-0.445,-0.075
3268,-0.445,-0.095
3269,-0.455,-0.105
3270,-0.480,-0.105
3271,-0.475,-0.090
3272,-0.470,-0.075
3273,-0.460,-0.070
3274,-0.460,-0.095
3275,-0.450,-0.090
3276,-0.450,-0.090
3277,-0.445,-0.080
3278,-0.435,-0.080
3279,-0.435,-0.100
3280,-0.435,-0.115
3281,-0.425,-0.135
3282,-0.430,-0.135
3283,-0.440,-0.110
3284,-0.435,-0.100
3285,-0.435,-0.090
3286,-0.435,-0.105
3287,-0.420,-0.115
3288,-0.420,-0.135
3289,-0.415,-0.120
3290,-0.415,-0.120
3291,-0.405,-0.135
3292,-0.405,-0.145
3293,-0.400,-0.175
3294,-0.400,-0.170
3295,-0.395,-0.160
3296,-0.385,-0.140
3297,-0.385,-0.150
3298,-0.370,-0.150
3299,-0.370,-0.175
3300,-0.360,-0.200
3301,-0.365,-0.190
3302,-0.370,-0.180
3303,-0.375,-0.180
3304,-0.375,-0.185
3305,-0.370,-0.200
3306,-0.355,-0.210
3307,-0.355,-0.200
3308,-0.340,-0.175
3309,-0.340,-0.165
3310,-0.340,-0.145
3311,-0.330,-0.150
3312,-0.340,-0.180
3313,-0.340,-0.190
3314,-0.355,-0.180
3315,-0.360,-0.180
3316,-0.360,-0.185
3317,-0.365,-0.190
3318,-0.360,-0.205
3319,-0.360,-0.210
3320,-0.360,-0.190
3321,-0.335,-0.150
3322,-0.330,-0.145
3323,-0.310,-0.135
3324,-0.295,-0.130
3325,-0.295,-0.135
3326,-0.285,-0.125
3327,-0.280,-0.100
3328,-0.290,-0.090
3329,-0.295,-0.080
3330,-0.295,-0.075
3331,-0.290,-0.080
3332,-0.280,-0.050
3333,-0.290,-0.035
3334,-0.290,-0.005
3335,-0.275,0.015
3336,-0.250,0.000
3337,-0.270,-0.015
3338,-0.260,-0.020
3339,-0.270,-0.025
3340,-0.280,-0.020
3341,-0.300,-0.025
3342,-0.315,-0.030
3343,-0.310,-0.035
3344,-0.305,-0.040
3345,-0.300,-0.015
3346,-0.295,-0.005
3347,-0.295,-0.005
3348,-0.285,0.010
3349,-0.295,-0.010
3350,-0.295,-0.020
3351,-0.300,-0.025
3352,-0.305,-0.010
3353,-0.310,0.005
3354,-0.330,-0.005
3355,-0.330,-0.010
3356,-0.325,-0.025
3357,-0.325,-0.035
3358,-0.325,-0.015
3359,-0.325,0.000
3360,-0.305,0.000
3361,-0.300,-0.005
3362,-0.290,-0.020
3363,-0.285,-0.045
3364,-0.295,-0.035
3365,-0.310,-0.025
3366,-0.310,-0.020
3367,-0.305,-0.020
3368,-0.300,-0.025
3369,-0.295,-0.015
3370,-0.295,-0.015
3371,-0.290,0.015
3372,-0.295,0.025
3373,-0.300,0.010
3374,-0.285,-0.025
3375,-0.290,-0.040
3376,-0.285,-0.035
3377,-0.300,-0.020
3378,-0.305,-0.015
3379,-0.290,-0.005
3380,-0.290,-0.010
3381,-0.285,-0.010
3382,-0.290,0.000
3383,-0.285,0.020
3384,-0.290,0.010
3385,-0.285,-0.005
3386,-0.285,-0.035
3387,-0.290,-0.040
3388,-0.300,-0.035
3389,-0.300,-0.015
3390,-0.295,-0.025
3391,-0.300,-0.020
3392,-0.305,-0.020
3393,-0.285,-0.005
3394,-0.295,0.000
3395,-0.270,0.025
3396,-0.270,0.015
3397,-0.285,0.005
3398,-0.275,-0.020
3399,-0.275,-0.020
3400,-0.295,-0.015
3401,-0.295,-0.005
3402,-0.270,-0.005
3403,-0.265,-0.015
3404,-0.255,-0.010
3405,-0.240,0.010
3406,-0.235,0.050
3407,-0.215,0.055
3408,-0.210,0.055
3409,-0.205,0.050
3410,-0.190,0.045
3411,-0.190,0.050
3412,-0.200,0.050
3413,-0.170,0.045
3414,-0.170,0.030
3415,-0.130,0.015
3416,-0.110,0.010
3417,-0.105,0.015
3418,-0.100,0.055
3419,-0.110,0.050
3420,-0.115,0.030
3421,-0.115,0.005
3422,-0.125,-0.005
3423,-0.135,-0.005
3424,-0.160,-0.015
3425,-0.180,-0.040
3426,-0.200,-0.035
3427,-0.215,-0.035
3428,-0.240,-0.015
3429,-0.245,0.015
3430,-0.245,0.030
3431,-0.260,0.010
3432,-0.270,-0.020
3433,-0.290,-0.025
3434,-0.310,-0.020
3435,-0.325,-0.020
3436,-0.335,-0.035
3437,-0.345,-0.035
3438,-0.360,-0.050
3439,-0.355,-0.045
3440,-0.355,-0.035
3441,-0.350,-0.005
3442,-0.350,-0.005
3443,-0.330,-0.005
3444,-0.320,-0.030
3445,-0.335,-0.040
3446,-0.330,-0.035
3447,-0.355,-0.025
3448,-0.365,-0.035
3449,-0.380,-0.060
3450,-0.385,-0.070
3451,-0.400,-0.085
3452,-0.390,-0.065
3453,-0.380,-0.035
3454,-0.320,-0.015
3455,-0.235,-0.010
3456,-0.130,-0.035
3457,0.040,-0.065
3458,0.245,-0.080
3459,0.485,-0.080
3460,0.745,-0.055
3461,0.990,0.010
3462,1.235,0.120
3463,1.385,0.250
3464,1.395,0.400
3465,1.280,0.505
3466,1.065,0.550
3467,0.755,0.505
3468,0.430,0.385
3469,0.105,0.230
3470,-0.120,0.075
3471,-0.295,-0.045
3472,-0.395,-0.145
3473,-0.425,-0.200
3474,-0.415,-0.195
3475,-0.390,-0.140
3476,-0.365,-0.075
3477,-0.330,-0.025
3478,-0.320,0.000
3479,-0.340,-0.005
3480,-0.355,-0.030
3481,-0.365,-0.035
3482,-0.395,-0.045
3483,-0.405,-0.030
3484,-0.415,-0.025
3485,-0.415,-0.035
3486,-0.435,-0.050
3487,-0.415,-0.075
3488,-0.410,-0.060
3489,-0.415,-0.050
3490,-0.410,-0.030
3491,-0.405,-0.025
3492,-0.400,-0.045
3493,-0.390,-0.050
3494,-0.400,-0.055
3495,-0.400,-0.035
3496,-0.395,-0.030
3497,-0.405,-0.050
3498,-0.415,-0.060
3499,-0.410,-0.070
3500,-0.405,-0.060
3501,-0.415,-0.035
3502,-0.425,-0.020
3503,-0.400,-0.015
3504,-0.395,-0.035
3505,-0.380,-0.065
3506,-0.380,-0.070
3507,-0.390,-0.080
3508,-0.390,-0.075
3509,-0.385,-0.070
3510,-0.385,-0.085
3511,-0.390,-0.095
3512,-0.395,-0.080
3513,-0.400,-0.070
3514,-0.385,-0.045
3515,-0.385,-0.050
3516,-0.370,-0.060
3517,-0.370,-0.060
3518,-0.365,-0.065
3519,-0.385,-0.075
3520,-0.385,-0.090
3521,-0.385,-0.095
3522,-0.375,-0.120
3523,-0.360,-0.135
3524,-0.365,-0.115
3525,-0.350,-0.090
3526,-0.335,-0.085
3527,-0.320,-0.080
3528,-0.315,-0.100
3529,-0.315,-0.110
3530,-0.320,-0.115
3531,-0.325,-0.125
3532,-0.340,-0.140
3533,-0.335,-0.145
3534,-0.330,-0.165
3535,-0.320,-0.175
3536,-0.315,-0.160
3537,-0.305,-0.135
3538,-0.300,-0.125
3539,-0.290,-0.115
3540,-0.280,-0.135
3541,-0.280,-0.140
3542,-0.290,-0.145
3543,-0.300,-0.145
3544,-0.300,-0.130
3545,-0.300,-0.150
3546,-0.300,-0.155
3547,-0.295,-0.165
3548,-0.275,-0.160
3549,-0.285,-0.135
3550,-0.285,-0.120
3551,-0.265,-0.120
3552,-0.270,-0.115
3553,-0.275,-0.135
3554,-0.270,-0.135
3555,-0.270,-0.135
3556,-0.280,-0.120
3557,-0.275,-0.135
3558,-0.270,-0.125
3559,-0.255,-0.120
3560,-0.235,-0.090
3561,-0.220,-0.065
3562,-0.200,-0.020
3563,-0.195,-0.005
3564,-0.170,-0.015
3565,-0.170,-0.035
3566,-0.175,-0.035
3567,-0.190,-0.015
3568,-0.210,0.000
3569,-0.205,0.010
3570,-0.220,-0.005
3571,-0.195,-0.010
3572,-0.195,-0.010
3573,-0.185,0.010
3574,-0.195,0.035
3575,-0.190,0.045
3576,-0.185,0.030
3577,-0.190,0.025
3578,-0.190,0.015
3579,-0.210,0.020
3580,-0.210,0.040
3581,-0.235,0.050
3582,-0.230,0.040
3583,-0.240,0.035
3584,-0.235,0.025
3585,-0.230,0.025
3586,-0.225,0.040
3587,-0.225,0.055
3588,-0.210,0.055
3589,-0.210,0.045
3590,-0.205,0.020
3591,-0.205,-0.005
3592,-0.210,0.000
3593,-0.215,0.010
3594,-0.225,0.025
3595,-0.220,0.020
3596,-0.235,0.015
3597,-0.210,0.010
3598,-0.205,0.030
3599,-0.205,0.050
