83
396
711
1032
1368
1712
2036
2349
2662
2972
3301
3631
3960
4283
4609
4928
5241
5569
5898
6223
6528
6830
7143
7463
7786
8105
8414
8721
9026
9321
9628
9953
10281
10590
10892
11185
11470
11760
12050
12338
12621
12911
13183
13457
13740
14030
14333
14640
14923
15195
15474
15760
16051
16351
16655
16956
17250
17532
17814
18099
18396
18687
18977
19267
19558
19860
20173
20493
20822
21166
21498
21808
22130
22451
22782
23126
23457
23774
24090
24404
24720
25040
25374
25704
26008
26310
26637
26967
27303
27621
27934
28243
28559
28861
29155
29467
29782
30088
30387
30688
30985
31310
31634
31947
32262
32565
32866
33165
33467
33777
34092
34391
34679
34980
35288
35598
35912
36217
36529
36837
37141
37450
37773
38099
38430
38748
39059
39376
39692
40013
40340
40603
40668
40884
40976
41265
41543
41829
41930
42126
42421
42714
42990
43268
43546
43816
44095
44387
44676
44977
45270
45553
45839
46138
46440
46750
47060
47359
47655
47944
48228
48517
48821
49125
49422
49699
49978
50248
50527
50816
51114
51400
51687
51965
52239
52512
52794
53087
53381
53667
53947
54221
54517
54814
55107
55405
55710
56011
56307
56607
56918
57252
57592
57928
58245
58542
58845
59166
59490
59822
60156
60477
60784
61089
61395
61727
62058
62359
62672
62994
63096
63315
63414
63631
63967
64292
64627
64929
65245
65576
65906
66225
66564
66890
67198
67510
67832
68164
68505
68830
69136
69446
69757
70082
70417
70752
71088
71400
71710
72021
72350
72680
73002
73307
73600
73912
74229
74556
74896
75213
75537
75854
76167
76493
76831
77161
77498
77827
78147
78474
78815
79159
79516
79853
80161
80464
80773
81107
81452
81790
82113
82443
82773
83107
83433
83777
84118
84427
84735
85072
85418
85752
86068
86372
86683
86992
87305
87654
88000
88338
88667
88999
89345
89699
90060
90399
90737
91069
91397
91743
92094
92448
92791
93131
93471
93817
94157
94517
94869
95199
95528
95864
96227
96589
96941
97284
97612
97950
98290
98647
99012
99358
99692
100016
100361
100722
101086
101426
101771
102113
102456
102825
103197
103555
103881
104210
104548
104883
105199
105532
105852
106182
106505
106842
107208
107567
107918
108253
108574
108918
109274
109634
109998
110346
110691
111047
111410
111791
112165
112522
112880
113245
113615
113985
114354
114681
114705
115062
115124
115478
115742
116091
116436
116769
117098
117433
117779
118144
118512
118853
119177
119512
119845
120171
120502
120823
121148
121458
121760
122091
122446
122802
123145
123475
123823
124179
124536
124893
125233
125563
125889
126227
126592
126953
127298
127636
127968
128290
128631
128985
129352
129694
130007
130333
130649
130989
131319
131647
131957
132266
132576
132911
133273
133649
134018
134365
134721
135105
135299
135725
136087
136434
136785
137137
137507
137887
138232
138581
138934
139310
139689
140063
140433
140775
141126
141494
141873
142251
142610
142948
143307
143680
144060
144440
144808
145156
145507
145878
146249
146604
146961
147315
147671
148051
148435
148811
149166
149521
149881
150259
150649
151012
151367
151729
152092
152470
152861
153243
153598
153960
154344
154722
155101
155477
155837
156187
156555
156944
157323
157672
158028
158385
158755
159118
159489
159866
160216
160573
160951
161334
161717
162087
162455
162819
163204
163595
163972
164333
164692
165053
165441
165832
166203
166558
166920
167293
167654
168030
168389
168728
169053
169391
169764
170128
170481
170844
171192
171538
171902
172272
172645
172991
173329
173700
174087
174455
174833
175192
175545
175914
176286
176664
177032
177378
177697
178030
178388
178752
179130
179490
179836
180214
180597
180975
181342
181691
182042
182387
182733
183074
183425
183767
184105
184448
184806
185157
185494
185822
186153
186490
186846
187206
187570
187895
188208
188530
188860
189211
189561
189900
190236
190563
190882
191226
191580
191936
192263
192586
192918
193257
193605
193949
194285
194622
194953
195285
195636
196004
196365
196702
197045
197391
197734
198083
198433
198780
199117
199457
199810
200168
200524
200870
201213
201550
201895
202242
202598
202960
203309
203648
203997
204344
204689
205033
205365
205697
206047
206419
206785
207160
207520
207879
208235
208623
209015
209377
209746
210109
210473
210848
211239
211621
211976
212351
212726
213095
213462
213813
214152
214496
214847
215234
215567
215981
216337
216689
217038
217389
217719
218060
218391
218712
219066
219442
219819
220183
220549
220916
221281
221668
222038
222388
222729
223064
223417
223782
224136
224485
224826
225171
225515
225889
226266
226634
226996
227350
227704
228086
228466
228826
229191
229550
229900
230272
230660
231032
231373
231734
232104
232476
232853
233228
233593
233939
234309
234705
235084
235452
235812
236174
236543
236936
237325
237680
238027
238382
238734
239108
239482
239829
240176
240536
240904
241281
241663
242035
242385
242751
243139
243527
243902
244268
244639
244994
245374
245769
246139
246488
246844
247224
247598
247975
248351
248707
249045
249406
249782
250145
250507
250852
251203
251550
251919
252299
252660
253018
253374
253744
254123
254501
254873
255220
255586
255962
256342
256732
257109
257458
257823
258207
258585
258958
259325
259682
260022
260376
260752
261126
261478
261827
262186
262549
262922
263297
263646
264002
264356
264714
265097
265470
265817
266167
266533
266899
267268
267637
267998
268346
268694
269071
269452
269814
270171
270535
270887
271259
271643
272006
272361
272714
273077
273448
273821
274190
274538
274895
275261
275621
276002
276378
276725
277069
277433
277818
278180
278539
278906
279255
279604
279983
280373
280734
281089
281454
281821
282192
282574
282944
283296
283658
284022
284406
284778
285147
285501
285850
286222
286598
286965
287326
287680
288032
288394
288785
289149
289506
289868
290214
290574
290953
291318
291673
292025
292374
292739
293117
293493
293844
294195
294552
294909
295270
295638
295989
296335
296687
297070
297445
297807
298183
298538
298892
299267
299625
299989
300325
300639
300970
301301
301657
302025
302393
302745
303101
303473
303862
304239
304611
304977
305338
305705
306081
306471
306832
307189
307544
307908
308294
308637
308980
309327
309668
310028
310407
310785
311133
311477
311824
312172
312539
312905
313248
313594
313943
314287
314650
314986
315305
315612
315923
316234
316564
316902
317232
317585
317928
318279
318636
319018
319400
319760
320107
320468
320838
321220
321584
321949
322301
322648
323014
323392
323761
324112
324455
324815
325182
325547
325912
326257
326571
326884
327202
327555
327916
328268
328618
328973
329339
329721
330090
330465
330826
331197
331574
331952
332321
332688
333051
333405
333742
334110
334457
334785
335095
335399
335709
336019
336345
336669
336994
337310
337624
337951
338300
338660
339015
339361
339724
340072
340434
340785
341115
341442
341773
342124
342506
342888
343268
343635
344007
344378
344746
345124
345487
345827
346154
346497
346860
347205
347527
347857
348190
348520
348868
349228
349593
349930
350239
350538
350842
351149
351455
351779
352101
352441
352786
353151
353534
353898
354250
354580
354909
355232
355573
355930
356292
356646
356994
357360
357744
358129
358498
358862
359220
359579
359959
360333
360700
361031
361361
361717
362057
362408
362743
363048
363346
363642
363938
364267
364619
364954
365270
365582
365913
366275
366653
367036
367413
367782
368156
368549
368944
369317
369656
370013
370370
370728
371092
371450
371803
372148
372501
372878
373238
373594
373943
374300
374661
375032
375413
375773
376122
376474
376836
377205
377567
377925
378285
378624
378972
379345
379720
380074
380414
380756
381119
381465
381795
382141
382468
382796
383121
383468
383844
384196
384547
384894
385244
385605
385980
386357
386715
387068
387421
387767
388135
388475
388796
389107
389432
389769
390117
390466
390823
391175
391523
391875
392254
392627
392980
393321
393673
394029
394391
394773
395129
395458
395801
396151
396525
396897
397267
397622
397965
398314
398682
399045
399411
399764
400112
400450
400801
401147
401490
401828
402177
402534
402897
403282
403660
404030
404381
404750
405129
405501
405885
406249
406605
406957
407339
407727
408088
408451
408807
409155
409529
409910
410279
410630
410980
411331
411707
412079
412439
412792
413149
413498
413863
414254
414615
414961
415317
415669
416041
416410
416769
417123
417469
417816
418183
418563
418916
419265
419621
419970
420341
420699
421066
421420
421761
422113
422482
422859
423215
423553
423890
424229
424560
424893
425240
425583
425920
426265
426620
427004
427378
427734
428093
428437
428796
429173
429554
429908
430258
430623
430983
431354
431723
432069
432416
432756
433091
433453
433815
434163
434498
434851
435217
435584
435957
436331
436675
437018
437384
437767
438134
438481
438829
439175
439525
439877
440232
440583
440925
441254
441604
441953
442311
442650
442967
443289
443607
443939
444298
444646
444975
445306
445642
445996
446349
446713
447074
447418
447757
448111
448462
448826
449181
449515
449863
450212
450555
450909
451253
451598
451939
452282
452643
452999
453352
453694
454029
454377
454718
455085
455451
455801
456133
456469
456816
457175
457518
457861
458210
458545
458887
459251
459602
459960
460305
460628
460979
461330
461673
462019
462356
462691
463023
463379
463759
464115
464466
464800
465147
465501
465865
466219
466556
466879
467207
467554
467904
468264
468610
468932
469271
469613
469963
470328
470681
471032
471371
471713
472076
472438
472798
473149
473502
473856
474196
474556
474918
475262
475590
475929
476292
476652
477021
477370
477713
478041
478386
478748
479116
479462
479807
480161
480518
480874
481250
481612
481947
482286
482627
482997
483342
483690
484031
484362
484703
485046
485406
485771
486125
486475
486836
487213
487596
487954
488304
488654
489005
489361
489719
490084
490432
490762
491102
491457
491814
492165
492495
492820
493147
493480
493820
494173
494511
494839
495168
495504
495853
496214
496575
496924
497243
497569
497902
498241
498575
498890
499190
499509
499820
500137
500463
500790
501117
501438
501761
502080
502427
502771
503105
503420
503723
504044
504377
504722
505088
505437
505768
506086
506419
506767
507111
507444
507791
508133
508481
508849
509231
509607
509951
510301
510664
511036
511411
511771
512123
512468
512822
513190
513555
513910
514266
514613
514966
515333
515704
516083
516440
516790
517134
517503
517877
518234
518580
518932
519282
519643
520012
520384
520736
521078
521439
521812
522173
522538
522873
523219
523562
523914
524261
524617
524966
525313
525653
526021
526400
526768
527128
527483
527825
528158
528506
528873
529224
529578
529942
530311
530688
531066
531430
531777
532014
532473
532864
533236
533598
533954
534315
534686
535057
535419
535769
536117
536481
536872
537271
537657
538040
538400
538748
539124
539505
539876
540217
540569
540936
541305
541665
542032
542397
542740
543086
543467
543847
544204
544556
544915
545285
545656
546035
546413
546756
547096
547455
547837
548210
548575
548942
549304
549662
550048
550432
550798
551142
551484
551842
552204
552571
552931
553272
553625
553987
554355
554725
555091
555438
555773
556137
556511
556872
557232
557592
557943
558297
558674
559054
559406
559749
560112
560470
560836
561210
561561
561883
562190
562516
562884
563256
563612
563967
564331
564686
565051
565437
565819
566168
566526
566897
567275
567646
568016
568385
568731
569085
569465
569844
570199
570549
570909
571273
571631
572003
572369
572720
573059
573415
573802
574172
574529
574879
575217
575558
575911
576277
576642
576984
577332
577695
578078
578462
578831
579193
579550
579895
580267
580648
581023
581380
581737
582109
582487
582861
583231
583586
583950
584307
584682
585061
585417
585760
586108
586479
586853
587219
587589
587925
588269
588628
589007
589371
589727
590080
590436
590788
591158
591531
591870
592201
592533
592861
593205
593543
593877
594215
594551
594905
595263
595637
596014
596367
596717
597079
597466
597837
598206
598572
598911
599258
599625
599989
600348
600693
601042
601395
601762
602126
602483
602836
603172
603506
603864
604228
604572
604907
605249
605581
605936
606300
606674
607017
607352
607685
608015
608357
608711
609058
609397
609750
610113
610499
610880
611262
611616
611966
612339
612708
613067
613422
613774
614127
614489
614852
615229
615589
615934
616288
616655
617034
617392
617763
618119
618468
618824
619199
619583
619938
620282
620647
621010
621379
621750
622122
622459
622797
623161
623528
623871
624214
624552
624890
625228
625590
625971
626331
626674
627022
627373
627725
628081
628433
628784
629130
629484
629862
630244
630625
630982
631340
631695
632064
632444
632812
633172
633526
633889
634278
634648
635009
635365
635728
636099
636482
636856
637216
637555
637896
638239
638589
638918
639254
639594
639946
640287
640649
641024
641396
641737
642072
642437
642812
643177
643542
643900
644267
644629
645013
645395
645749
646099
646451
646821
647195
647569
647934
648291
648647
649004
649372
649751